time,breath,heart,delta,theta,alpha
34,0.015776015255926843,1.282051282051282,147.162273787932,28.57604453880216,38.95156070388404
35,0.016231884057971015,1.2630819198845178,85.85014480542637,31.649202035136295,50.56120513707953
36,0.01671488267438123,1.2658227848101264,57.26748454377974,29.706625125775627,53.71575893729735
37,0.017227507217568272,1.2560841576385615,76.09054660817185,35.56520095847206,67.22181222970421
38,0.017772569698745178,1.2430512662137123,120.33036637521649,111.24022549703378,239.10920496866973
39,0.01835324963444764,1.2376998769987697,168.18614755743704,236.52532862650216,525.9721965973906
40,0.01897315611154548,1.2191517659228608,87.18505783530505,209.96293547609676,675.7869046049271
41,0.019636402869935805,1.2014388489208634,108.62122350570175,246.20758019950364,612.6443670127345
42,0.020347699703728548,1.1935299985748897,166.33785807299074,253.02878862455927,445.8446654670625
43,0.021112464474218433,1.1887493366354147,82.1775111234329,247.60261696319924,534.5841960091346
44,0.021936961369252096,1.1668491650698056,122.6005360469983,187.49269516061156,563.5128719063035
45,0.022828472875509567,1.1315004538970301,105.07694315575431,207.31682575128372,411.52081968934175
46,0.02379551546054782,1.2205008106647532,93.24499983419588,41.422778040993045,72.42512540695657
47,0.024848112499146698,2.239884393063587,89.53428689232483,26.787227468939236,49.482992999555634
48,0.025998142989786442,0.923514660493829,137.14414718980217,26.556041772007628,44.81487847681518
49,0.02725979180708455,1.3009170398805718,148.7113947661119,27.294244564651986,50.39791501831124
50,0.028650137741046827,1.3384663592819732,182.68261592785572,44.745034621471625,47.01234543008153
51,0.0301899311603218,1.342281879194631,132.49426352437453,47.533894851133226,78.87884454730752
52,0.03190463669033219,1.3355965515701078,135.20715269821832,54.03249462384073,84.96911463105694
53,0.03382585261592788,1.3115319901635094,228.8717761383661,49.529602678911914,87.37223473954595
54,0.03599327598141006,1.2903225806451613,242.94447634183095,45.37205730171434,78.67002924164433
55,0.03845747490755414,1.267095736122285,150.63315934939422,27.126398945470754,137.33376120439712
56,0.04128388340705455,1.263602662733686,99.82718128340585,33.22105019207564,77.88377879942985
57,0.044558697514995714,1.2447167396952186,92.07731113123526,28.390428121176612,67.48930175376277
58,0.0483978194389044,1.2214371617558621,186.61976949455732,29.208810106059417,64.80324651390116
59,0.05296086134148116,1.2259588347767403,81.67534341084207,33.16559058312636,137.8747062674961
60,0.058473895582329294,1.0194624652455815,65.8061916239256,5.487259157922217,60.44160287446978
61,0.06526806526806525,0.7838948895695775,31.7979119291909,4.0903438435255985,27.242552458863198
62,0.07384865084195574,1.8994114499732409,21.33643352771441,4.054011540900696,16.84818493623678
63,0.08502686288250406,1.7582861762327882,16.686252682729254,3.6130749103395785,12.041579620404514
64,0.10019267822736028,1.3649688530597355,12.684266295542665,3.9956159307554056,9.141129042663493
65,0.12194304857621438,1.8125854993159334,11.530333125166148,4.24286423778132,6.809199539599441
66,0.15575524176294392,1.088060351080812,9.400711829084763,3.424865019739683,5.783797633590976
67,0.21551213735938424,1.1764705882352942,9.15866781785639,3.234191827518738,4.796054937041213
68,0.2691415313225058,1.1401832201937636,7.532377287276729,3.3056367973289302,3.968124452069803
69,0.27423167848699764,1.0863881949689171,7.326218751027243,3.0320261494095315,4.183036895117562
70,0.27951807228915665,1.0550007033338036,6.619081821476225,3.188712682639714,3.125790852990613
71,0.285012285012285,1.08381076132538,6.513127863675851,3.202910634486884,3.2141583108784215
72,0.2857142857142857,1.0859438686386378,5.53315672437183,3.1025220123680812,3.5741404802178507
73,0.2857142857142857,1.0437902633939489,5.60377285277707,2.4420259903182577,2.8645459191815585
74,0.2857142857142857,1.0536023699066592,5.108520656440548,2.6355373948810397,2.4413062862852692
75,0.2857142857142857,1.0920157536698893,4.848073169887384,3.209420401829108,1.6445404560696628
76,0.2857142857142857,1.0926677812276087,4.079077221588423,2.6031102390365715,1.9938582570259904
77,0.2857142857142857,1.0833822665883732,4.410100789627889,2.869995406697584,2.0648922240748337
78,0.2857142857142857,1.0770794019451295,3.824645294466525,2.2840805456756965,2.6558570826922074
79,0.25249169435215946,1.1028747062014115,4.2633116944827725,2.2948732340928157,1.7158279421260965
80,0.22287390029325516,1.1454086585129113,3.8723260208816264,2.0680080669891607,1.6484798662801867
81,0.1994750656167979,1.168090206272576,3.692870515224145,2.10393293952185,2.3667606808898687
82,0.1805225653206651,1.1456035816571752,3.384028052949566,2.464945310047217,1.519483926067916
83,0.16901408450704225,1.2920891627091164,3.1949696329921426,2.4406669393178055,1.5746347468553052
84,0.19047619047619047,1.0825439783491038,2.7921402341950436,1.7931348327626018,2.3934586791751404
85,0.21818181818181814,1.0965536884078693,3.3546127478091234,2.6557578636436965,2.301663850414241
86,0.2553191489361702,1.1764705882352942,2.931360422859174,2.3721991811977428,1.257523184991431
87,0.3076923076923077,1.1904761904761905,3.1057302103274123,2.178111279935142,1.8778430101082464
88,0.3333333333333333,1.1973456433929615,2.6962604866208055,2.062269462124496,2.3199512074615556
89,0.3333333333333333,1.209618476830872,2.5771387443903104,2.096722002194351,2.242237623124359
90,0.3333333333333333,1.1929774580677324,2.368672657847251,2.628030778405253,1.614256762114267
91,0.2947368421052632,1.1904761904761905,2.5273174320738674,1.810748409497612,1.6767724462096678
92,0.24866785079928952,1.1771300448430506,2.317319568454442,2.45501921701708,2.5663609269398933
93,0.2150537634408602,1.2001576326442867,2.4699903298380272,1.9758828410503617,2.177390876444281
94,0.18944519621109607,1.1806087622762411,1.8246971443679703,2.327839221228101,2.3206390375490837
95,0.17879948914431673,1.1724659606656576,2.242850043294182,1.8268531136398183,2.6860794040979616
96,0.2014388489208633,1.9518542615485608,1.7736093249323284,1.4682791625035037,3.0121208384238765
97,0.23064250411861617,0.8593045920399146,1.803852897917331,2.3708575331834614,3.231452568291573
98,0.2697495183044316,1.1842012790779397,1.719217210960578,1.968681179029194,3.111149547912843
99,0.3248259860788863,1.1968945438861345,1.965636703097865,1.9359809828129326,2.7917436437595837
100,0.32573289902280134,1.215861635684985,1.846388935457115,1.9576052517822027,3.2459718941176217
101,0.31746031746031744,1.2088797714118245,1.8432236166123177,1.92713392665231,3.224257069533628
102,0.30959752321981426,1.1664020981434173,1.5733700820947043,1.6888688328521828,3.3505661823733117
103,0.2936708860759493,1.1911111111111115,1.5794540621152018,2.1366005161522463,2.5507541936938436
104,0.27684964200477324,1.195574589578872,1.9417766121163433,1.7901071319812367,2.5358651861950157
105,0.2618510158013544,1.1838049873914254,1.5788275628437296,1.602286686959861,3.1230414347833766
106,0.2505050505050505,1.1719824030794606,2.424356580816317,1.8617501256790618,3.9351940711137474
107,0.2546201232032854,1.9125371089288317,2.047449336724902,2.273477737072129,4.111308494103009
108,0.2588726513569937,0.9050391122430584,2.7456271386191764,1.947259033505246,4.274900243782213
109,0.2632696390658174,1.2229891956782724,2.71794506304332,1.4365186242099108,5.213615018391411
110,0.2706766917293233,1.2565196775723124,3.6885049253372193,2.0925624932665396,5.073912890802384
111,0.288,1.2700210321954364,3.3165763855952326,1.9045388234755132,5.884928707509471
112,0.3076923076923077,1.2659763792266638,4.584791946878734,2.0424680500396675,5.476581184439413
113,0.3302752293577982,1.285590671226667,4.769405171175439,2.267416408900286,5.894239843231583
114,0.3420074349442379,1.2604373757455256,6.16110324342475,2.2671202111743423,5.950937992408998
115,0.35249042145593873,1.2375096079938501,6.30310658928954,2.239571123069835,6.841642836171965
116,0.36363636363636365,1.2126141447003596,8.160343677746338,2.0421275814016,6.7429489495209864
117,0.30933333333333335,1.2250861681402665,8.709597805044604,2.2204133330177886,7.593771646245639
118,0.2691415313225058,1.2125220458553785,10.753630298475914,2.0339367301926665,8.631655347494815
119,0.23819301848049282,1.1856033874382483,12.33242326289113,2.7203557337914464,9.391527118662811
120,0.22442244224422442,1.1946118397731313,15.542965717680158,2.6439851530861476,11.410605441500218
121,0.23050847457627122,1.2190151543221308,18.428865877345814,2.410019560387433,14.19364062362758
122,0.23693379790940766,1.2059973924380687,24.118744251124795,3.1560408678020284,17.639533281607275
123,0.24372759856630827,1.1871213188671264,31.010333286784597,3.3586439994081845,23.706089274958607
124,0.2495274102079395,1.1928005964002992,44.42832539681736,3.525837668252137,36.19369999747174
125,0.24581005586592178,1.1976047904191618,70.3979201690953,8.403115622554148,81.63427129767128
126,0.2422018348623853,1.1820412677565386,169.82375062269278,25.761303476021453,125.64949325883343
127,0.23869801084990958,1.1531961427577284,196.49608933237047,50.56663238546113,54.926319249701145
128,0.23529411764705882,1.1525265647380192,85.39328832071514,5.08097399526605,21.42164000106168
129,0.21101992966002345,1.1844272348179585,40.12819388858032,7.4446377587851895,14.308811203378426
130,0.19128586609989373,1.1976047904191618,87.85891457842966,23.143255128088526,37.39500795149733
131,0.1749271137026239,1.1976047904191618,119.30925410368842,19.234024418518437,62.50055427815592
132,0.1611459265890779,1.2011793397153596,59.26517996410013,42.84634353385168,90.4159782507171
133,0.14937759336099585,1.2483806383229352,189.2558519278969,34.65722412140383,75.39592144059868
134,0.14925373134328357,1.2557936853781202,98.75902484783659,40.70133795706856,48.97218970768865
135,0.1694915254237288,1.2755716004813518,159.00160108471738,35.81911246921609,83.82259535220766
136,0.19607843137254904,1.291590035111186,40.950430579636325,28.57318224275974,37.07187675188173
137,0.23255813953488372,1.630505391711106,44.219205902735794,21.691413653405743,40.8769243860265
138,0.2857142857142857,0.989874809950495,33.40924109402914,26.859185961972933,34.652677387094066
139,0.32704402515723274,1.352843732744341,35.02108136149024,26.76061904105679,96.26816838947705
140,0.31137724550898205,1.353576001463324,19.907723512913606,24.929999546422042,59.51964594183665
141,0.29714285714285715,1.3403263403263408,45.58987549657154,16.659750988276606,80.18280419297027
142,0.2831858407079646,1.3322710574071612,18.387934949552,27.391289446898714,57.55004512446427
143,0.2644628099173554,1.3129573826947898,25.38970496944249,28.952123012784856,50.2544288143844
144,0.24806201550387597,1.27430158470838,37.65192172897444,27.73929439244228,48.47115783198411
145,0.23357664233576642,1.2500000000000018,22.13862740856414,30.192120639248838,69.42594099430559
146,0.22335025380710657,1.2872182924823148,70.8868191869592,33.46282227874383,57.065895438938995
147,0.2328042328042328,1.2451995810543461,54.006626887786275,28.43002962818624,40.0912156389903
148,0.24309392265193372,1.2228974416685419,92.53033998395885,28.49468658039416,44.5330003106627
149,0.2543352601156069,1.1774659803990686,31.55710682017986,28.127417642139754,31.05393864755449
150,0.26666666666666666,2.1631572891497117,54.581303367109705,25.970083247355443,51.18404905995099
151,0.26666666666666666,0.7947263247352672,174.8018337085179,22.90663099367923,50.728238369552145
152,0.26666666666666666,1.0439651695257186,229.5867917328588,20.301366208373675,60.01062456788557
153,0.26666666666666666,1.1044694602057235,78.23356146500937,36.9916496345962,77.25732840594411
154,0.2692307692307692,1.0869565217391304,26.713020009362985,37.5773102059644,73.32996038555586
155,0.27999999999999997,1.087794178670935,49.38255566153205,21.121846251361834,58.68471661848948
156,0.29166666666666663,1.0971076253513476,32.21539171438638,39.072072369028554,81.74927123573316
157,0.30434782608695654,1.1049219249383602,28.63680050618049,22.688845619531843,81.42691080296616
158,0.27755102040816326,1.0928961748633879,91.49631381610999,28.835730407704908,61.094731993522046
159,0.24548736462093865,1.0716851027151235,57.124843357635015,29.752400442718507,67.65011147752234
160,0.22006472491909385,1.0494422255887614,99.7849713238974,17.094690186847707,58.62568915915326
161,0.19941348973607037,1.064791278314413,51.431533894196555,16.844525167342805,69.24403410887605
162,0.19047619047619047,1.0443003187864097,73.82407315072895,23.20537219772671,75.82113648848006
163,0.19047619047619047,1.005037911556661,64.86804219668029,20.694240689454414,40.17869568699707
164,0.19047619047619047,0.9950248756218907,62.69696411957489,32.69214563134187,98.17560218621018
165,0.19047619047619047,1.005747126436783,70.14712915278847,31.84411140089565,119.728790480719
166,0.19047619047619047,0.9992486851990972,52.9446625679181,25.49462686513092,93.71767785957627
167,0.18791946308724833,0.9585702680747318,72.27665981900309,27.214340853185558,73.72155990101996
168,0.178343949044586,0.9492104908003066,74.68275580007051,51.89728028773365,58.87742583209635
169,0.1696969696969697,0.9934909215484804,97.47525304254889,28.425448327509063,78.27699135451576
170,0.16184971098265896,1.058774489370576,115.82813386564949,31.16008856155114,102.38866474858033
171,0.15469613259668508,1.0728190338860841,210.51455203801314,38.239149547535916,75.85358811714813
172,0.14814814814814814,1.0740303492758216,117.33489659754495,31.48647588840649,53.45943159183882
173,0.14335910049191847,1.1064756031199015,71.77606807606021,31.180179085689616,98.66121273049379
174,0.1475054229934924,1.1234544655745944,51.39614730523483,32.757978033765056,74.64155381193756
175,0.1518987341772152,1.1609959063150115,32.13999718304427,30.632511009866462,45.45836549453534
176,0.15656178050652342,1.1513321609874254,27.668062954833655,27.37376018282917,46.033208941015324
177,0.16152019002375295,1.1473469656124653,74.31253902914605,30.633997800700286,106.9607267123542
178,0.1668029435813573,1.14779977635993,81.40500155777696,24.763145067454975,66.79745888806491
179,0.1724429416737109,1.1560693641618498,63.61629858896018,25.021308114754596,67.4274037356627
180,0.16812053925455986,1.1744162158460596,48.56777202049384,24.29949413337251,48.45721034974002
181,0.16097190584662113,1.144044047344302,60.38067773088012,26.749906978707124,59.13473211862217
182,0.15440640932265112,1.1627906976744187,46.76212430236646,33.95830329321573,53.29255590235837
183,0.14835549335199438,1.1627906976744187,74.19039620217644,19.48907637390288,60.611256327424236
184,0.14276094276094276,1.170190925887908,24.316359595267258,22.577813559567577,53.50122448060974
185,0.13757300454250487,1.1666780377976396,66.89784969636123,16.95503907791535,50.5290305905667
186,0.13340870548332392,1.1687736395542985,46.779319812922104,19.603462790843217,50.90381544252207
187,0.13401476433844406,1.1637430892089276,36.574556618206,31.945171628625985,52.79495465761918
188,0.13462635482030805,1.1803506335705611,47.09798062195464,19.636725130394083,67.1038996480361
189,0.13524355300859597,1.1590124945566613,36.67211830886711,19.603579664148516,45.81077005733275
190,0.1358664363845711,1.1393514460999123,31.680119360944374,23.273130071904117,61.8236619892411
191,0.13649508386350492,1.1235243852264454,25.739612202717353,35.00007343207872,72.3441344289743
192,0.13712957582800697,1.1173184357541899,52.60686949085644,26.835580469246455,60.07305028092492
193,0.13776999416228838,1.0797219346250564,69.11808976949322,26.973207268091247,35.993448384892694
194,0.13611416026344678,1.0642535996812934,54.49855073337141,26.3216465222225,43.53926096225293
195,0.133764832793959,1.0869565217391304,63.43701707378623,41.14732194272944,37.78843377173826
196,0.13149522799575822,1.0884434663653122,51.26580660352643,26.656929631260606,29.66920391814671
197,0.12930135557872782,1.0911235623709823,81.32716252861763,34.8570515942172,48.440072737681156
198,0.12717948717948718,1.0671688637790333,43.56814017819138,23.155645784357567,44.82030269507416
199,0.12512613521695257,1.0795355079652214,41.01693798338075,33.8102803344535,47.91492219229943
200,0.12313803376365441,1.100633698189867,83.56709562350666,34.610628035877774,75.40929808808637
201,0.12121212121212122,1.1244827695126192,104.70215681747743,38.78897643954951,72.97046262548069
202,0.11522633744855967,1.116846550915063,115.2453969951404,28.996729823241036,33.53429266657379
203,0.10980392156862745,1.1061743526888308,190.5152645272183,26.5556948619894,82.34699280491257
204,0.10486891385767791,1.1220152519064885,111.25937360661567,21.916957934158845,60.74994679832853
205,0.1003584229390681,1.14254093291234,124.54013683795449,30.655092181692808,57.51061220690891
206,0.09621993127147767,1.1315956770502218,178.90862078148308,19.480324314737697,38.049307523023394
207,0.09240924092409242,1.1111111111111112,808.1664439800345,45.83670358827002,128.36887043679943
208,0.08888888888888889,1.1243072050673009,535.6401828318828,9.154670375170019,13.609639657411385
209,0.0856269113149847,1.1502231036192365,172.65298648916644,5.243781356621452,3.583440427367661
210,0.08259587020648967,1.1375085313139848,71.74344917912035,17.974515980260772,21.878274019116734
211,0.07977207977207978,1.0943373347884076,108.91260610105344,22.192818591879607,40.28523445116211
212,0.08134805345729228,1.0816039395005275,91.4726559540896,17.433830353950583,68.76399677690725
213,0.08788449466415568,1.1049723756906078,66.17862434592101,29.612809703305015,28.88009383140549
214,0.0955631399317406,1.1049723756906078,61.116400116396235,34.533978249765276,74.02458856587538
215,0.10471204188481674,1.1049723756906078,94.15696523921638,21.026445779332988,38.217025409535125
216,0.11579818031430934,1.0992320433669625,75.96825423236034,33.136619743507765,32.39207874992063
217,0.12950971322849214,1.112284844342261,62.2193469317497,36.307033424178805,38.731173122649096
218,0.14690451206715635,1.1458025542532584,150.63190351547885,54.149443828807044,36.256213789695636
219,0.16969696969696968,1.1812247435498926,55.65893823569591,15.755721617667827,31.14482774504802
220,0.20086083213773315,1.2107508843587034,48.1053347003187,19.9819723017183,28.44132319235465
221,0.21428571428571427,1.2658227848101264,58.9061879924698,24.0794556270563,66.26997154136238
222,0.21951219512195122,1.2691377921031428,48.72008799259954,23.64420154153712,45.15491150456608
223,0.22499999999999998,1.2419949543954958,45.80822330351138,19.747816880698803,44.13693114846138
224,0.23076923076923078,1.2136012136012129,26.57859107508853,32.499356367189435,58.656467573667285
225,0.23703703703703705,1.1855049897374206,48.12079440461182,38.137520779163225,64.10847777542465
226,0.24427480916030533,1.2048192771084338,29.164440093371187,22.697053431360946,43.9959308484036
227,0.25196850393700787,1.194125614885577,40.9255693177572,25.67536966421877,85.7348141377584
228,0.2601626016260163,1.1739926107523908,23.53864462275455,37.59409682534808,89.56639176101909
229,0.25806451612903225,1.1754567390554982,46.58179011605258,20.0978142956006,46.578075782805136
230,0.22857142857142856,1.1836605668926279,56.64024224126425,22.376447938339723,105.12040861577894
231,0.20512820512820512,1.1843388602480127,41.82199925194227,24.13440954546127,63.49388537173292
232,0.18604651162790697,1.1627906976744187,36.716202944353675,16.78962282345333,77.7324202466234
233,0.1702127659574468,1.1627906976744187,125.21637454101423,58.33540664867106,94.15429777024221
234,0.16247582205029013,1.1261837727156379,53.5655412857931,36.17842176737572,67.35007006627177
235,0.1731958762886598,1.1011741802032002,56.374026348862834,12.758515821783337,63.392849420927696
236,0.18543046357615892,1.1100889297761425,61.31881390526915,15.835386072225681,84.61870340829553
237,0.1995249406175772,1.0991680330357683,180.3208500210507,23.636715028689483,113.24579142834864
238,0.21593830334190228,1.1151248625726404,191.0248901143004,68.10421806805967,133.9829753937724
