time,breath,heart,delta,theta,alpha
545,0.14814814814814814,0.7676530911221762,6.56543655381007,11.816095647170892,22.206172933618305
546,0.16926503340757237,0.7523279582103122,5.771674770752201,16.53989177928378,17.615363724037078
547,0.19740259740259739,0.7566240292370955,6.549701901566095,9.486260282796799,20.392421175996265
548,0.2367601246105919,0.7789855072463812,11.618291970196065,11.766748067035499,25.215387703200594
549,0.29571984435797666,0.7841215388385173,10.200977013143651,14.073106609176627,16.31040536860154
550,0.3517915309446254,0.7654836464857313,8.76602027853494,13.445255046871166,24.24760529494493
551,0.3112391930835735,0.7481296758104702,8.641668287934317,10.582771217621298,23.33609776385085
552,0.27906976744186046,0.725174677112002,12.5356181083918,10.497882459046854,18.629227312851683
553,0.2529274004683841,0.716192627579834,19.505807857179626,13.79932256179808,19.81437825175443
554,0.23841059602649006,0.716701155806791,8.288956353284904,11.475763361942255,13.668908835814864
555,0.22641509433962262,0.6956351344731269,10.83655254842147,11.432984232696695,12.391559795678251
556,0.21556886227544908,0.694343989584841,9.395196746017447,9.351797971403334,16.119647577019524
557,0.20571428571428574,0.6993006993006994,6.5015721943154405,11.988655519836843,17.086503638036135
558,0.20077220077220076,0.6993006993006994,17.58924530727759,8.744628695276855,13.12487292496895
559,0.20286085825747724,0.7141404899867877,9.943136120760435,7.821587851806303,23.077784847254456
560,0.20499342969776607,0.7214033630890583,6.965807453685389,11.400695773816162,17.740091197340636
561,0.20717131474103587,0.7139963540611695,6.283961901183274,13.978544016053409,18.132033997079105
562,0.20939597315436242,0.7068377782233793,8.91197581988121,14.581176574783548,14.273683146071084
563,0.2117310443490701,0.708685162846805,6.772564135145209,12.845664971376214,19.670429403301014
564,0.21418234442836467,0.7134877107454796,16.77374012642025,7.370327959379016,18.677259380308794
565,0.21669106881405564,0.7098827809215835,15.563756219164242,9.79081992067826,17.55123893265984
566,0.21925925925925926,0.7441375144159634,5.7432713258229855,11.185948787506502,20.441106663696715
567,0.22188905547226387,0.7610701107011,9.428820886080828,7.883387762807147,16.313351046812706
568,0.23357664233576642,0.7468531468531486,3.938885882929104,9.488887423578078,22.640609663734885
569,0.24806201550387597,0.7510548523206768,13.903426018731109,11.515394507682492,19.40465979696439
570,0.2644628099173554,0.7660370738553367,14.017542928412498,12.778978257542912,16.27036837266151
571,0.2831858407079646,0.7871321013004877,9.411576192844871,9.323964155271911,22.65782820000311
572,0.2655935613682093,0.807664639330327,8.81625515488434,10.7621474845348,16.813859273171477
573,0.24581005586592178,0.8129813705483528,7.355739278478285,10.253893986523549,23.91061826241578
574,0.22876949740034663,0.7360349266763473,4.593208681043865,12.013248272097234,22.35163990514551
575,0.21393841166936792,0.7193127716828837,4.863116812262482,9.791297649718341,23.63392102525678
576,0.21428571428571427,0.7246376811594204,7.726619879632767,10.34935348651047,23.014957394787952
577,0.21951219512195122,0.7246376811594204,6.552217161915744,12.330756927128657,22.720191681198376
578,0.22499999999999998,0.728129633552215,12.244205379018526,14.519336303439509,19.1418893057662
579,0.23076923076923078,0.7498160828476188,4.899098903557616,11.253133698138354,24.33216767428933
580,0.23529411764705882,0.7782919646613324,10.464916960044816,12.08779934575364,21.16641919072551
581,0.23529411764705882,0.7645079402562078,6.991258962008001,11.250372487371978,11.039322460357402
582,0.23529411764705882,0.7260690833377664,6.2439243689880035,7.672287857567273,22.708198705729018
583,0.23529411764705882,0.7194431458106157,6.965450195010448,7.5497133639220895,27.94022828627557
584,0.23529411764705882,0.7366582996835139,16.590311299476525,17.615331184356165,33.00267632184941
585,0.23529411764705882,0.7447864945382365,8.259456861968683,16.946765574206033,26.77015522829151
586,0.23529411764705882,0.7677880670495965,5.114871943971898,9.48449733134999,13.547745793797658
587,0.23529411764705882,0.78125,8.06997291971574,12.966119830173168,12.373266505190786
588,0.23529411764705882,0.7698517963208353,9.401150543267365,13.821840572264582,18.90028358869953
589,0.2219215155615697,0.7239303725394312,12.829366990012064,9.460429297169714,20.899135033562835
590,0.20628930817610064,0.7227846780085603,5.510252779864004,10.621083527862377,25.419187178536212
591,0.19271445358401879,0.7498295841854364,6.568072714503426,12.179662871301014,16.58379674588065
592,0.18081587651598677,0.7899284127375856,6.576101812868669,14.53594298495012,22.145251327061768
593,0.1703011422637591,0.7708985786557356,3.617625926169117,11.559314672662026,20.221165152298514
594,0.17281348788198103,0.7178788513938096,9.477570817036401,10.991272574613282,13.258176284717742
595,0.18365061590145576,0.7018584420719722,9.001143985682807,8.008153411813607,10.821891798777578
596,0.1959378733572282,0.7174392935982464,20.338737743026076,20.233703319788606,15.181829532340892
597,0.20998719590268888,0.7448433919022309,6.023612326120499,6.150873399422274,17.307082677242345
598,0.22620689655172413,0.7617447720558489,9.42978235621104,13.950596298644236,17.76753318712809
599,0.236983842010772,0.7486601469694228,7.243724037792882,10.69441102619081,13.618654490522228
600,0.24043715846994534,0.7095242904757113,4.43471170716424,9.735134140014795,15.865459351570513
601,0.24399260628465802,0.7131255710080214,11.962294851225584,15.037768526566998,18.175656121081655
602,0.24765478424015008,0.709398269269467,5.360036599983945,12.00414088078832,17.21411172276474
603,0.24727272727272728,0.7051729293332024,11.05098459755909,11.303429479865386,22.90301642532549
604,0.24028268551236748,0.7087047981568688,7.657680498106475,9.930751706378436,19.01312367998975
605,0.23367697594501718,0.7122940430925244,10.672924598582169,9.81411751692943,19.076446184802865
606,0.22742474916387959,0.7298680312416065,7.1277618272656085,9.693589399946605,31.031158729971366
607,0.2215743440233236,0.7604885219947768,8.959145020737887,11.523704291110873,29.005368811697682
608,0.21652421652421652,0.7315348634830658,7.399223490556799,7.959622674120426,35.847318630039034
609,0.2116991643454039,0.716266173752303,12.214705083812857,9.08049647067266,26.428089126043577
610,0.20708446866485014,0.7198024483791531,5.939669763381769,7.478729145412951,15.62257324069622
611,0.20266666666666666,0.7513848516426527,8.57049747332057,7.570712364821188,18.77510497171715
612,0.20077220077220076,0.788075019854632,11.486697596897757,9.123081639869547,18.461746059087535
613,0.20286085825747724,0.7964714095322677,10.163664135512583,14.514225546483125,16.968446268197013
614,0.20499342969776607,0.7871828116317727,5.65268394048908,5.33594244008945,15.778244170450053
615,0.20717131474103587,0.7775338455909365,11.552370702316638,6.643282938832473,14.21106703602445
616,0.20939597315436242,0.7920238538949053,7.842248289616512,11.020806034930139,18.59373965109563
617,0.21587301587301586,0.7605897495904227,9.076694629037204,12.335281593304076,25.4149085822807
618,0.22742474916387959,0.7462686567164178,3.023329605026281,11.095590813802914,19.67155750285337
619,0.24028268551236748,0.7462686567164178,3.913650225621863,8.662933555282642,22.7829902846845
620,0.25468164794007486,0.7462686567164178,7.675909189889655,14.136878528765255,21.758430459304062
621,0.26666666666666666,0.7660491669579563,10.06237939771956,10.521862329443543,22.828384113613193
622,0.26666666666666666,0.7866212449674962,11.70407188551404,8.672875693939533,14.480668105271501
623,0.26666666666666666,0.7858009708737548,13.49740635532226,6.494141411834778,15.039881771797546
624,0.26666666666666666,0.7458989320708922,5.001213347502524,9.88163101394821,16.28557580449261
625,0.2585551330798479,0.7337810029242843,7.065222794660894,10.393405788439575,12.765241133292907
626,0.24372759856630827,0.7325712445660953,10.994470694314732,11.535138904083729,11.920197289203838
627,0.23050847457627122,0.7403314917127191,12.145776223571158,8.686618143913552,12.449511877160816
628,0.21864951768488747,0.7570621468926675,7.924391044363935,15.381538815299841,29.895518391129585
629,0.2156521739130435,0.7155123068116513,7.756044362660637,14.811879284317683,23.866497397368725
630,0.23892100192678228,0.7210408067297386,5.086576469070004,8.609268292984332,26.66188974821054
631,0.2678185745140389,0.7491784102935354,9.089114951437875,14.422070737356597,16.564121003395957
632,0.3046683046683047,0.7368651728482905,9.692373481711204,6.542036126664141,15.7591400276484
633,0.304093567251462,0.7533434907736724,5.420835872313379,7.001942841680492,24.635696558462644
634,0.24644549763033177,0.7369949970412301,7.286984652835269,6.600143203484034,14.866665703101358
635,0.20717131474103587,0.6993006993006994,5.398659604404513,8.281755802609965,22.35100945483964
636,0.17869415807560135,0.6993006993006994,10.781986905733032,10.572298253856289,13.836476408174853
637,0.15709969788519637,0.6919172572304084,8.237876256863549,9.72882516345107,10.280825550852432
638,0.14814814814814814,0.6868131868131917,10.804538043194588,7.737329279224277,13.485914581905227
639,0.14814814814814814,0.693381790359607,15.895056682828447,9.098248521937666,24.79397258443795
640,0.14814814814814814,0.6972789115646282,12.603461291712033,11.646291109306224,11.812063842906063
641,0.14814814814814814,0.6965607313887635,6.930651058115299,11.15291671200996,18.34758984794529
642,0.14814814814814814,0.6898864561874145,9.000811016770538,11.347440340113785,19.1405079969681
643,0.14814814814814814,0.6928461833525148,6.342634808393236,10.819253779837373,11.45681265871403
644,0.14814814814814814,0.6997642899234009,11.919334584289128,8.885135544452565,20.532363663218998
645,0.15819209039548024,0.7105976177087149,9.58345396265325,12.223819679932285,20.079201557280417
646,0.17391304347826086,0.7254318668128074,10.111937937995872,14.195206253290651,18.83663713333933
647,0.19310344827586207,0.7354929425125794,10.249322446243825,13.823618542671744,21.38551510910343
648,0.21705426356589144,0.7366035292212968,9.043157818618733,14.526362646146497,16.876358296050274
649,0.24778761061946897,0.7248685677871527,7.820702093761741,9.529563821004869,19.931172784639863
650,0.26229508196721313,0.7322287546766487,7.276432924569792,7.507093513372935,19.970465900056404
651,0.25396825396825395,0.7452725250278199,26.19169573177919,11.665940293967514,38.78306731342752
652,0.24615384615384617,0.7686742629770571,49.187864740010355,12.614970979665081,33.579284248888634
653,0.23880597014925373,0.8127749091604781,9.470135087267463,14.12215321961135,34.557331197179884
654,0.23880597014925373,0.7781742125984056,8.553124393942692,10.535572886329778,20.324575457679767
655,0.24615384615384617,0.759500981864379,5.327664974933454,11.454506735185275,16.45422329584465
656,0.25396825396825395,0.7686785906562439,10.56929974391874,10.468058910324576,23.769205399411007
657,0.26229508196721313,0.8199058890632279,8.32141360267175,13.892445295391854,25.703485978685958
658,0.26666666666666666,0.9406183543269255,10.377651028231657,8.132385223574317,26.51840883361192
659,0.26666666666666666,0.8583690987124003,11.941558210684045,9.518484295327212,23.952295034399043
660,0.26666666666666666,0.8225817461942617,11.473340906394919,17.459067492543305,19.68117851901181
661,0.26666666666666666,0.7835545722713575,12.190963664167224,15.399229142934153,15.148813543601403
662,0.2703962703962704,0.7575757575757576,9.136087489672938,15.42901336671131,16.63730607388084
663,0.2755344418052256,0.758907641819048,4.331558185842083,13.079076086107689,17.772611144074094
664,0.28087167070217917,0.7818159864767098,4.6824165331804055,12.863681493075365,20.78965374850889
665,0.285012285012285,0.772964227934557,5.117120707395778,9.283078115587795,33.48549299677439
666,0.27951807228915665,0.7511631817926857,8.412685667398899,13.338338003757086,22.03394224223124
667,0.27423167848699764,0.7326107086442749,6.588719898005791,14.796254172372741,17.546281701528613
668,0.2691415313225058,0.7531216753457777,14.736429159012053,10.46023351362716,11.788092457629913
669,0.26439232409381663,0.7831068316168155,6.434223378766433,12.1162061175097,17.867746417212604
670,0.259958071278826,0.7781516644633815,6.075101961157323,11.997215303795604,20.34171536506426
671,0.25567010309278354,0.7387454661830386,12.785762960822112,11.716941084354762,14.259745667176626
672,0.2515212981744422,0.7049063517915144,12.246517320872618,10.209031451146808,16.00445376512043
673,0.20923076923076925,0.7139590426342897,14.585552642092555,7.809116160606072,18.99926615047279
674,0.16593460224499756,0.7295173961840694,13.538307514607958,8.289982272846224,20.461494463341225
675,0.137484836231298,0.7407407407407407,10.739744202933553,7.177243876205435,18.65730256386797
676,0.11736278909216433,0.7407407407407407,9.977904991166016,8.348292534094634,26.978142316492484
677,0.10237880156579343,0.7191267008122344,12.836836632713222,8.7540798843807,25.150475023456664
678,0.09078771695594125,0.6982288828337858,11.657854105550808,13.693722374864487,22.595772785068153
679,0.08155432957543776,0.6948479566143696,11.667123369790596,13.087400805638211,23.38794125602596
680,0.07402569126932287,0.7066082802547844,4.352465176278759,7.085518793279047,28.672010464630535
681,0.0677695834163843,0.7229232386961194,8.12947294474509,15.211406578830555,20.973174089619203
682,0.062488513140966734,0.7387184840211838,4.225296775131457,13.263485789000056,23.143810444093443
683,0.057971014492753624,0.715730511902898,14.589562099533568,9.310025473075997,20.945056941186078
684,0.06312098188194039,0.7042602787283603,21.632282066870843,8.940023786516678,26.184225938830153
685,0.06927517639512508,0.6993006993006994,5.968887800917514,8.709068429563247,14.743483414159583
686,0.07675906183368869,0.6993006993006994,7.807450023262786,9.342429543239776,20.673944744060247
687,0.08605577689243028,0.708279107017726,6.638648576594578,12.283200765016568,20.797202584847355
688,0.09791477787851316,0.7158985938622624,14.804034298036115,11.982791131542154,22.172313725661088
689,0.11356466876971609,0.7182821714804012,4.004318708287254,13.419506967547807,14.399128102263814
690,0.13516896120150187,0.6938020351526205,7.639132947766128,5.521903988605016,10.644137771560194
691,0.16692426584234932,0.6910238630385988,5.087859347436705,8.277872322015268,12.260092878590527
692,0.21818181818181823,0.6981141222669273,18.360109376160494,14.867981399313194,20.656563852605014
693,0.31486880466472306,0.6914101886973595,5.636932841179816,10.296417323170498,16.62051759791046
694,0.28758169934640526,0.7127999594135486,13.880509470248677,12.705856465039924,15.234920125644244
695,0.24858757062146894,0.7326986843512621,49.314143588373916,10.386679530683352,15.974073185400194
696,0.21890547263681592,0.7249444385649229,17.99974906020048,12.814401443794287,21.100957252730595
697,0.19555555555555557,0.6973089766254,23.939105906538998,11.52654804246979,19.191339320474174
698,0.1692047377326565,0.686677049412433,20.329998120798624,11.049995518314637,21.65153530178273
699,0.14727540500736377,0.6902171308057367,8.780818808425472,7.913998878195693,22.149749853720643
700,0.1303780964797914,0.696897836712969,4.976441142233941,10.264963930246122,22.89982700055978
701,0.11695906432748537,0.7229294358007459,14.286621475701555,16.80319758575675,17.738203889042605
702,0.10604453870625663,0.7474669176678922,12.049367549761453,11.174953008657795,14.954536062734867
703,0.09699321047526674,0.7312713287470781,5.78920901351146,11.214453491487443,16.323435757300466
704,0.08936550491510276,0.716162604977064,7.541648216352694,14.982919334294774,13.465296607705161
705,0.08285004142502071,0.7092198581560284,9.66875462952793,16.95753816318931,23.771880247684777
706,0.07722007722007722,0.7096317995858398,14.399177389443537,13.91859081681509,23.463175747395052
707,0.07610112066718791,0.713234174323572,10.02788280526691,12.704546673283117,23.412594057812285
708,0.082091650267079,0.72770574225987,9.810293522785635,12.618545139225645,37.8855400004173
709,0.08910588953310955,0.7491912140303262,7.402055090385216,10.271533927028791,33.14550983987916
710,0.09743076409743076,0.7747178857510165,9.190041216491212,12.655013285771897,25.584533304531035
711,0.10747147589252852,0.7442565859686359,9.933380161099553,14.088034904019016,30.43174776838563
712,0.1198194501436192,0.7170393215111619,7.802735801690142,9.704125913398316,25.17380532352432
713,0.13537320352341214,0.7003145272262653,27.57564737459963,6.600488140816788,32.2361911733952
714,0.1555673947789025,0.7037732121691055,6.3410370238842555,9.691992832414291,25.95647499416832
715,0.18284283030682527,0.7336463557784922,9.45299308697335,13.214595205587015,21.596981824336034
716,0.2079806529625151,0.7583184360763611,15.41165978897905,14.898994072831856,20.382949874127622
717,0.1983852364475202,0.7636862879697727,5.727470525229199,13.175149922736814,15.472002459394803
718,0.18963616317530319,0.7342830427369,7.9102068853712515,11.984507780132112,23.660347419679294
719,0.1816261879619852,0.7234600262123141,5.618762887704026,10.256416108265972,18.17978535937248
720,0.17426545086119555,0.7143220295897019,18.586914091527554,10.703634643118571,22.776654357436115
721,0.16747809152872445,0.7050765511684232,12.692154143415355,12.107144681025714,13.681112220396608
722,0.1754010695187166,0.7195723684210639,11.965094824001874,13.283974632031127,18.560846313383873
723,0.18657565415244598,0.7431349798331631,15.647486599430822,10.682327213054645,20.437310734902493
724,0.19927095990279464,0.7539237668161185,28.02689158702031,11.248598829238281,16.10941299475454
725,0.2138200782268579,0.7254584681768923,17.93740669789831,10.621632265450803,18.346954896725187
726,0.2306610407876231,0.6970351462791835,23.765211876700217,16.076362505494302,35.296532328179964
727,0.23076923076923078,0.7017456853799124,18.879415933938333,16.90468906683574,22.75182386036619
728,0.22499999999999998,0.7433513001244755,24.74972081475472,12.691167377722449,29.223987354651005
729,0.21951219512195122,0.860591099225234,38.47450288290636,12.166871639497069,22.44652911125662
730,0.21428571428571427,0.8599508599508444,48.8536096310631,12.729971388609604,25.56216592849024
731,0.21176470588235294,0.7755474452553921,34.6480358444907,12.122834606541241,30.125401307376052
732,0.2168674698795181,0.7281037414966054,8.95223760539271,14.369256781983788,27.552549270425324
733,0.2222222222222222,0.7325338894681636,8.061868466031484,11.523104560109086,23.593790423013942
734,0.22784810126582278,0.6997011952190958,4.783457278503175,7.365394336226026,27.060322782292005
735,0.23376623376623376,0.6831429237584438,5.648979841632997,12.241821852520703,24.167095896780715
736,0.25053995680345575,0.6776446644155683,8.848479640482186,8.394958106891583,28.919196309616517
737,0.27423167848699764,0.6871804493644245,9.947877639390157,13.160431554929733,28.081844969838492
738,0.30287206266318534,0.6997113079219168,3.8134570707883633,13.856961860733499,21.027578899541606
739,0.33121019108280253,0.7126436781609278,4.578257060383027,13.993581052254521,18.343957894686767
740,0.3151515151515152,0.7237354085603198,7.440782513028235,13.935179685881977,18.169751786140356
741,0.3005780346820809,0.39924424750879145,8.255803882826477,14.319646595173653,20.225395063462155
742,0.287292817679558,0.26829305158777284,5.0609507548120884,12.267572575923122,19.925129531170587
743,0.2571428571428572,0.2020282498093141,8.821584582277652,12.827600700648006,13.099576846019172
744,0.23076923076923078,0.1897169167803894,7.204495517934424,10.41968849949864,19.94916361475551
745,0.20930232558139536,0.24645547186536526,9.428556879377476,12.715155325644542,17.053828556617262
746,0.19148936170212766,0.35161188369164387,9.493541508247487,11.04235747519788,13.825930276908712
747,0.18842530282637954,0.6132855567809352,6.566612732702047,11.557693633636172,16.787616797448017
