time,breath,heart,delta,theta,alpha
64,0.15605993176086633,0.9792834628618176,34.186841614303574,4.538522255324713,9.064939506998016
65,0.21570637687102726,0.9828483330121411,43.40358229222855,5.306897588512644,11.407626370973164
66,0.27184466019417475,0.9754585132008873,27.202082282075054,1.6466058908462986,2.751670719370638
67,0.2828282828282828,0.9608499826769835,13.071604005139044,1.3276396125714434,2.2404861166060943
68,0.2947368421052632,0.9669056683093165,8.028511950357059,1.1282252732713545,1.9615739065400701
69,0.3076923076923077,0.9756097560975611,6.31299764349686,1.2287568592471778,1.8126344752590127
70,0.3076923076923077,0.9665444867275235,5.2512834613752855,1.1424015314029021,2.041430792132223
71,0.3076923076923077,0.9569377990430623,4.760897860020532,1.0675914470598327,1.9685756013228177
72,0.3076923076923077,0.9624973908203259,4.377903811761354,1.0320496147766558,2.0162302414227056
73,0.2936708860759493,0.9640341119762702,4.165651295101734,1.0752060057851376,2.0350144874677527
74,0.27684964200477324,0.9451795841209834,3.947424938670122,1.1067848710864707,2.0134069462636774
75,0.2618510158013544,0.9347640050029621,3.8404383086923843,1.091801181422502,2.1827422609969642
76,0.2495274102079395,0.9506091612405559,3.9117372756989806,0.9973293704229814,2.3175550233116438
77,0.24581005586592178,0.9593589009730972,3.8411783461623132,1.0338175359922372,2.371622748619818
78,0.2422018348623853,0.9488737771953999,4.139594996088231,1.0427613422234046,2.474604165191113
79,0.23869801084990958,0.9587415353826815,3.7550899524643064,0.8287868596285637,2.5323217042354287
80,0.23529411764705882,0.9855822009709445,5.220769994992594,1.076076922050173,3.2477007166029783
81,0.24242424242424243,0.9946216753849562,6.323753232179888,3.6599399978523697,4.645937047761844
82,0.25,0.9802515181944249,18.197975564506205,8.122610974590943,9.345775227841207
83,0.25806451612903225,0.9709657556955432,8.453329007066413,3.4849102839980435,9.492736870680384
84,0.26666666666666666,0.9943563558183277,9.111259183108425,5.430375551194601,11.243708586834721
85,0.2772277227722772,0.9719170885471398,4.702431174303562,4.1672081744910345,13.295372665081736
86,0.28865979381443296,0.970873786407767,7.883329625116901,7.707348162331157,17.81395531791589
87,0.3010752688172043,0.9838352737419414,11.97882605422405,8.231284681912701,18.89195550733491
88,0.2982005141388175,0.9809356245932854,14.074804169653527,4.690262971902483,12.896626986259388
89,0.28087167070217917,0.9641486473836942,12.661736957570781,9.613905326193237,18.195753385075033
90,0.2654462242562929,0.6283644104222604,5.593682323357465,3.6381531930203392,11.646532744689342
91,0.25162689804772237,0.5526075022872751,8.226819672973525,2.9560845678471104,7.588970579435114
92,0.24372759856630827,0.8921713441654141,10.250550300841072,5.835710526947207,44.84651872421267
93,0.23693379790940766,1.0101010101010102,12.861837253553249,3.906491299907928,16.362559383214037
94,0.23050847457627122,1.0059036663541696,7.316872873833781,6.234576786141954,35.98647419787636
95,0.22442244224422442,1.0008528570711885,10.185014033695763,6.470772576554098,21.004436502925852
96,0.2175732217573222,1.0127034334982903,12.395210885809329,9.27346748116777,23.642736542357234
97,0.21052631578947367,0.9981691871692632,7.309285658526924,11.462944900779599,35.02870561636584
98,0.20392156862745098,0.9828188701223068,7.133481799120723,10.088269408115819,38.72171235898677
99,0.19771863117870722,1.0090588827377946,11.260708327962202,8.156845861902871,44.85331692983398
100,0.19188191881918817,1.0423102753525848,30.6027445292071,11.819424999826843,26.449052825756663
101,0.19812583668005354,1.1060100166944893,122.22523872333043,40.894209442275304,134.91827703374034
102,0.20933521923620932,1.1687561580538854,96.62053764555186,44.23943047514542,122.02822171534167
103,0.22188905547226387,1.1815675462780582,38.48213990986883,24.65165431801209,75.38627187104322
104,0.2360446570972887,1.2414959449590672,105.41650639733248,27.469748490325284,99.82030154488471
105,0.2529274004683841,1.122804772720006,49.40119063951094,24.87571550188246,144.2780045256218
106,0.27906976744186046,1.0602205258693813,44.1209814147297,32.18087968147593,114.09273367212374
107,0.3112391930835735,1.1251541307028343,76.56279749619483,33.333705375648854,133.9781085402506
108,0.3517915309446254,1.1366948411541826,39.179202910035684,24.51875097219046,152.56995458973478
109,0.3552123552123552,1.139732525199288,29.688529137480682,30.771780397061075,99.92463339366914
110,0.34456928838951306,1.1600928074245944,103.49451170601643,16.35925814415772,151.25192041267937
111,0.33454545454545453,1.1253099370589354,69.9532039054206,38.08440724234786,130.60502555917085
112,0.2909090909090909,1.163419913419913,24.080504217560573,14.838639289685693,87.09874649516978
113,0.25396825396825395,1.1962403873540297,30.96337194701142,18.81847861121802,55.72868930086116
114,0.22535211267605634,1.1919206337877384,80.04255101926422,33.392730662044194,85.322984636629
115,0.20253164556962025,1.146744412050535,92.88757271125891,53.7623831028478,106.0918584999819
116,0.19672131147540986,1.1029301277235168,35.13440038297473,19.674578846414796,57.01254078602774
117,0.19310344827586207,1.072695291098359,18.65816497956687,18.148851777519997,30.60111426588972
118,0.18961625282167044,1.081081081081081,19.720334005530635,19.7308835349524,34.45812815773444
119,0.1862527716186253,1.0914621417707924,67.9997337233196,72.2730674418557,230.91302798061463
120,0.1830065359477124,1.079819057347148,26.797619904008474,36.45520051726357,62.60818946358835
121,0.19310344827586207,1.0615531902911528,15.145713081349232,11.60316337468271,21.0852718957097
122,0.21439509954058192,1.0221285563751323,9.428848651307487,11.00841528219016,24.59611021991538
123,0.24096385542168672,0.9904153354632589,9.707389619875363,9.249134133107992,22.36408244361307
124,0.27504911591355596,0.9821665580733127,8.96240439297151,7.597028126347173,28.61560757311374
125,0.3059490084985836,0.9688646411438248,7.401959045913982,9.586402209723476,16.261188690079013
126,0.2991689750692521,0.9537249903261785,4.915434449957267,6.476932143335049,20.895483720131253
127,0.29268292682926833,0.9478672985781991,4.002936853543045,5.480070053831364,24.576031550781348
128,0.286472148541114,0.9564123098043698,6.474768906610376,6.742195943976129,26.358401396149265
129,0.2764976958525346,0.9543936191969468,8.057848270408007,4.131154427737401,17.221678469756583
130,0.26666666666666666,0.9357031984434098,15.146012068996024,6.63942876360829,17.83895392845389
131,0.2575107296137339,0.9328886854552192,13.223461494819457,5.144422012808447,22.41086429531465
132,0.25,0.9421984630805211,7.930299736085846,9.829155493049319,26.711417701485235
133,0.25,0.9532476396314412,8.308796718938328,8.459853964148078,29.72960264859887
134,0.25,0.9582824629702148,7.59877161340913,10.471582131814985,23.607054559013346
135,0.25,0.9677191495373311,7.313205512115465,9.84630145720546,33.18447812744519
136,0.2510460251046025,0.9795957375639126,5.766178077840822,6.338069360558685,18.80028519803157
137,0.2597402597402597,0.9703276613697088,5.676348208381611,6.749184383557543,18.974467317321718
138,0.26905829596412556,0.9619874848230126,3.209039359943928,8.252469140118153,29.943643071719233
139,0.27906976744186046,0.9802988483867897,4.465871216122769,9.12261829798356,30.846465280415433
140,0.28361858190709044,0.9899058857950942,6.497871364935647,8.666845012076795,29.91530516636002
141,0.27817745803357313,0.9671545792049946,10.974517294789202,7.51611195928049,23.943412297447885
142,0.27294117647058824,0.9453117949643535,4.752244095800494,7.131062603046789,24.49008249655295
143,0.2678983833718245,0.9550816696914699,5.6467404266063435,9.048659423223732,23.660288760854947
144,0.2601626016260163,0.9532042678071753,15.190066068584574,8.645373352413054,19.161097623350148
145,0.25196850393700787,0.9420725596311885,4.940550374145148,4.859089488441797,16.176538493591796
146,0.24427480916030533,0.9452680860550664,3.213597580419381,5.646444674191346,18.777907314967425
147,0.23703703703703705,0.9630262580540865,3.494596814739518,4.8145150081001375,20.538453248258943
148,0.24361493123772104,0.9564000825669137,5.5315493879387505,8.124123213895894,14.822053834450443
149,0.25567010309278354,0.9530941520865953,3.7724721343512666,4.97417845037433,18.14060569105802
150,0.26898047722342733,0.9618719507965501,10.701800087991133,4.076587136498652,34.3335023137014
151,0.2837528604118993,0.9685286806434971,11.110049684130361,3.8504267327003423,31.539663226383762
152,0.28087167070217917,0.9686649779529037,2.8390148968959545,4.725466734172512,18.177917083817007
153,0.2755344418052256,0.9562062119172051,3.730546912203845,5.822406877731867,16.62285502443962
154,0.2703962703962704,0.9468252187570113,9.628201522056282,10.454493562945427,21.028096192114585
155,0.26552462526766596,0.9538986909504837,14.097832684646393,6.920729348903032,17.475005894170405
156,0.26105263157894737,0.9596087748840856,7.658144386878837,6.575217581738396,34.90277125189546
157,0.2567287784679089,0.9697741912649536,9.919760792189184,3.715927827270549,24.506165979683182
158,0.2525458248472505,0.9860292138680241,10.175054567005823,6.151746864832228,19.769435721090744
159,0.2549450549450549,1.0038746037337092,6.307813456428416,5.920386096863237,22.33813555775441
160,0.2691415313225058,0.997716668321255,6.155093728140255,4.644993256059421,21.766327690294155
161,0.285012285012285,0.9911948448029908,4.320034012583592,7.040437482650989,19.584528966360345
162,0.30287206266318534,0.9928973432623068,8.029095363762806,8.737729515529507,32.958835756931904
163,0.2936708860759493,0.981307292788588,3.9474410571869645,6.247639194139748,24.858939389134548
164,0.27684964200477324,0.9670092954646562,5.098099797793668,6.077003063317226,34.00591831918103
165,0.2618510158013544,0.9743602020540575,6.009120133000856,5.548640947679554,20.975326083275917
166,0.25162689804772237,0.993727708768909,3.4509514360732614,14.70099410874684,31.338732086602654
167,0.2654462242562929,0.9840573068666939,10.678987704486422,7.244896978233141,10.955399315938202
168,0.28087167070217917,0.9775359352803804,5.140823750474478,3.679651894645451,26.286433850414614
169,0.2982005141388175,0.9967692654461678,8.442692787851906,6.427477512607097,26.961410530544196
170,0.3115264797507788,1.0142663217478163,7.311826591716503,6.87421493473105,24.464514592454087
171,0.3194888178913738,1.007666470090511,14.406733131257578,8.709503710557907,52.717285759833196
172,0.3278688524590164,1.036325951783572,29.135974321972245,8.79280404308857,40.97939367480542
173,0.33003300330033003,1.080651335355261,14.060317377798087,7.37480021100477,19.90393350560907
174,0.3215434083601286,1.1382060020514209,12.62623329006511,8.204958091291102,22.191126859442644
175,0.31347962382445144,1.2343327364851997,8.701152662408461,4.109055824185654,21.713742236787816
176,0.30959752321981426,1.1855596696097974,8.632978629923247,6.112825366289088,24.018040519286316
177,0.31746031746031744,1.0791366906474826,5.907286427076586,4.726087000577164,12.865405170276063
178,0.32573289902280134,1.0638297872340425,7.300360604401867,7.077257217357705,14.459972183747436
179,0.33222591362126247,1.086448598130841,9.539544693079597,3.9367369218978814,10.371435768343927
180,0.3236245954692557,1.0416666666666667,5.938974001571575,8.26652348469399,19.83920105460148
181,0.31545741324921134,1.043497363796134,5.785135020675925,7.8042736745895445,12.953819043592716
182,0.3076923076923077,1.0607414024117912,6.721259622238156,5.165762517390306,8.27240960312075
183,0.3076923076923077,1.0396466278819219,8.362975700683391,6.80496919898524,16.993872224727117
184,0.3076923076923077,1.0357104326248783,7.21912892121509,7.747129697459304,33.8043656824368
185,0.3076923076923077,1.0511504717761961,6.180410472778716,10.982063498907014,20.312480972540573
186,0.2978723404255319,1.018096668278653,6.218593047666229,6.546635505339156,48.381992955307766
187,0.2857142857142857,0.9650746058888289,12.587780677611804,11.723818581881579,36.826231611682886
188,0.27450980392156865,0.9918622770783352,6.548900583376093,12.070395340262193,51.11102487596738
189,0.2692307692307692,1.0129055478430768,3.051761624694939,7.949498566571235,36.69009986157409
190,0.27999999999999997,1.014448201660006,7.248310616706396,8.017750141105592,26.065116891851805
191,0.29166666666666663,1.0029736404415102,8.685174057023694,8.101796886035359,19.62875901701453
192,0.30434782608695654,1.0147958788442173,7.896258402679474,6.589690683345919,51.785601048099736
193,0.2978723404255319,1.0189040316532623,8.363988911087304,15.400382497857008,36.73947518732609
194,0.2857142857142857,1.0050251256281406,6.538812418100827,6.690476979540247,13.615850371734892
195,0.27450980392156865,1.0119949657103229,9.700385419632939,7.585878754399271,37.16510811113122
196,0.2692307692307692,1.010947699966979,8.86751492762692,9.768874359980842,42.79247477170542
197,0.27999999999999997,0.9835194045720361,11.202795124432853,7.82907539113731,37.76946300721145
198,0.29166666666666663,0.9836224440352749,12.366534330810705,8.436408164003582,33.73269488170274
199,0.30434782608695654,0.9965122072745395,5.953767092773444,8.907163068457516,51.45040160446985
200,0.2978723404255319,1.0051390568319225,8.588241293496624,6.672282725941505,14.978103178540241
201,0.2857142857142857,0.99182481035033,5.096524083681691,3.1255604586411265,26.935686056373726
202,0.27450980392156865,0.98674593119579,7.696739399259481,4.472155642737805,14.665405091032735
203,0.2692307692307692,0.984270964006561,13.005554180363786,8.744329145544443,24.539313643275946
204,0.27999999999999997,0.9670053127038861,6.114428092763244,5.242039857948583,32.03610402786094
205,0.29166666666666663,0.9602258266040403,9.967406548366894,8.872212093684931,18.18893669966678
206,0.30434782608695654,0.970873786407767,8.569557125281927,5.03312113168737,22.27566024688763
207,0.2936708860759493,0.9676218831410485,6.286490484494502,4.709174736539405,18.376092717135325
208,0.27684964200477324,0.9523809523809523,13.36717807184662,5.620660767865996,22.914028631658397
209,0.2618510158013544,0.954753009547531,4.328523564953944,5.378057202699743,24.048006672724114
210,0.25162689804772237,0.9803921568627451,8.79128537550664,9.15754963567,37.836803991054786
211,0.2654462242562929,0.9807237064592496,10.885430541928086,8.500329596761947,21.761479787693805
212,0.28087167070217917,0.9900990099009901,7.11131054927325,7.941612266015819,18.313331056736807
213,0.2982005141388175,0.9902951079421671,12.351055279938114,6.220705770180502,14.4088596473098
214,0.3076923076923077,1.0101010101010102,8.675301810038361,7.436490124911108,21.01612081521587
215,0.3076923076923077,1.0101010101010102,21.374789790728315,4.295812988986145,26.48603869498229
216,0.3076923076923077,1.0105685412327394,9.1526114056374,7.462396128068716,24.262703187034493
217,0.3059490084985836,1.0248787357221094,7.519900629736594,11.156013452733701,22.497874046049983
218,0.2991689750692521,1.0087763542822556,2.0891879399587405,5.609293116772194,15.440018511975918
219,0.29268292682926833,0.9913750371765637,4.750190761879715,4.727720993031043,11.0110060842209
220,0.286472148541114,1.0084498541394227,5.652382356808073,5.262174424313979,13.284399531477494
221,0.29110512129380056,0.9852216748768474,3.801968958633621,5.615196806461796,15.301331354075332
222,0.2975206611570248,0.9859086016244254,1.3658880782388878,7.087323200595338,18.861628703888115
223,0.30422535211267604,1.0010136847440452,4.415614670136148,10.838689565563286,17.75179352299796
224,0.3076923076923077,1.0247985605882812,7.975859174187189,9.370768621308292,23.210933666205868
225,0.3076923076923077,1.0101010101010102,6.2858493576379875,4.920643408342508,12.413210107126444
226,0.3076923076923077,1.010514466985597,4.746175647222402,4.363798166632702,18.210956049354948
227,0.3059490084985836,1.0133156809328614,12.980471455034241,5.771339778887242,11.841429794544911
228,0.2991689750692521,0.9945460378569138,6.63771764951189,5.571173648807587,23.383641062447406
229,0.29268292682926833,0.9914208717581032,6.064818019192249,3.6638935322343436,14.302381899802972
230,0.286472148541114,1.0045823052520266,7.887451577065509,5.9652432075850825,15.281878042984012
231,0.29110512129380056,0.9991052788547569,2.5641749407307346,5.822027022259842,14.77260732123776
232,0.2975206611570248,0.9917683229197661,7.053870033522441,5.947049235137459,9.458280398621644
233,0.30422535211267604,1.0101010101010102,4.186449286765628,3.851494618667979,9.995014080717201
234,0.3010752688172043,1.0076896014474546,4.8867061732014,7.169916658897647,30.15704396324103
235,0.28865979381443296,0.9852216748768474,7.37806875158863,6.318394758081338,31.586417947586494
236,0.2772277227722772,0.9855933028326683,9.784761629622723,4.561606818835106,15.424866751343068
237,0.26666666666666666,0.9897844469426658,3.691615474187334,8.229467976567516,15.647286242579803
238,0.2772277227722772,0.9854733922184103,5.457252873297312,12.489194454099469,21.748947029911246
239,0.28865979381443296,0.9910827392632715,3.135457931200221,10.542283167314233,33.65080538741522
240,0.3010752688172043,1.015228426395939,12.893182059483065,9.335340178638512,15.619325230866071
241,0.3076923076923077,1.0146301468139074,3.7803302070226756,4.453572954966648,22.886715881926275
242,0.3076923076923077,1.0046834869315606,14.821891902470124,4.718661604809393,20.38047262763778
243,0.3076923076923077,1.0,8.775014924688122,6.5436676676152645,22.625953933428672
244,0.3059490084985836,0.9986157801067822,7.820600906712929,5.608826440255755,17.684926240365773
245,0.2991689750692521,0.9806756300901163,3.7259190184913447,7.097110472877734,25.372434167273376
246,0.29268292682926833,0.9856302910536976,4.157596356241178,8.192679905340771,19.979411772682656
247,0.286472148541114,0.9947063892650498,4.355585462632132,4.926706029071166,38.315041931724096
248,0.29110512129380056,0.9852216748768474,8.46082951746214,7.6800787476188,19.16576581560025
249,0.2975206611570248,0.9853665710714035,13.4434534041595,5.764708707132582,16.97574355359269
250,0.30422535211267604,1.0050124681997932,9.592323912803401,6.123320887104264,17.795157617916068
251,0.3115264797507788,1.0000502537815976,8.829597440651629,6.348674049161384,19.1941711357522
252,0.3194888178913738,1.0101010101010102,14.21344792990591,4.054790462425259,24.171801273078273
253,0.3278688524590164,1.0103082209344074,8.805689324312066,7.463223767768377,17.458261412398627
254,0.3218390804597701,1.0194910248837978,6.836686446539914,6.147294492348449,21.06484630913349
255,0.2947368421052632,0.9948160947914094,3.6149137887308775,7.584982099084283,30.587623711951593
256,0.27184466019417475,0.9913104274870173,8.90733760915241,7.799527797535379,23.496788121726293
257,0.25225225225225223,1.0258709354149635,10.320361458123005,6.623598402171942,24.587109748372317
258,0.2618510158013544,1.0348792640858562,8.62052893387491,8.429942113953539,19.98882589641771
259,0.27684964200477324,1.0944120964545923,21.66702404884474,8.847373045358566,19.237144570657552
260,0.2936708860759494,1.162471709759272,9.41808586629653,6.3230122678927225,21.72349265348357
261,0.3076923076923077,1.172008473997135,4.7830491564867295,7.7688552699027476,18.902285989925307
262,0.3076923076923077,1.0928470912302763,8.314652210233632,7.0325820870557285,18.57378247861142
263,0.3076923076923077,1.060469314079423,6.49220338434121,8.555555198646356,18.63606997540897
264,0.3076923076923077,1.0487489333590247,5.053869414780588,12.035785693645849,25.869560785698027
265,0.2947368421052632,1.0121143093808243,9.322065232453028,7.627334559389055,18.59262731422608
266,0.2828282828282828,0.99632279864838,6.1646239562492715,5.020787945371278,22.26767465327097
267,0.27184466019417475,1.006127543687117,9.648737721177264,10.201180469886554,61.724675779423144
268,0.2691415313225058,0.9988734509951183,18.91530090175951,6.325182758633707,27.558702981068535
269,0.27423167848699764,0.9950248756218907,8.255259572162318,10.741724891804642,30.476518085547003
