time,breath,heart,delta,theta,alpha
142,0.2063882063882064,0.769259163559854,37.177128729262925,19.841475487922906,47.38035138237905
143,0.19858156028368795,0.7616802954744694,24.658697447658128,21.26342337266381,27.81208950084958
144,0.19134396355353075,0.7487673593942047,22.710793814259077,24.67887842482725,80.77118815175669
145,0.1846153846153846,0.7341345553150463,28.572626877067442,17.525646113656762,81.63831979408333
146,0.178343949044586,0.7268042088571004,33.21775616711028,18.228878117407444,83.33872680044476
147,0.17497456765005087,0.729885038033166,32.59597683284533,25.33133556294516,79.79485057796629
148,0.17935349322210636,0.7491416808128778,49.33794786742928,23.64410163746671,64.50277308831633
149,0.1839572192513369,0.7531754643518223,44.12774568145227,19.09624676473685,59.62650344783124
150,0.18880351262349065,0.7493994298961346,36.44498273537429,29.566572725152554,51.938757145221786
151,0.1939120631341601,0.7439501804148844,31.347846691973444,14.140252005280534,62.40483074096597
152,0.19930475086906144,0.7523351977345412,29.679527087054083,20.12619023867636,102.1996644979149
153,0.1889763779527559,0.7602092199733602,29.0799497259882,20.919453776965806,106.94129085886479
154,0.17777777777777778,0.7612499232610964,24.09697049134941,15.126451285951955,98.99463300818108
155,0.16783216783216784,0.7536659293847794,41.567584399245646,20.809650824984182,85.2186380332294
156,0.15894039735099338,0.757985535228775,18.30978951632864,28.812293548709405,65.86119241754359
157,0.1509433962264151,0.7492347754579924,22.45450594970178,15.952421561489286,119.72767100766706
158,0.1437125748502994,0.7452327025644774,14.623914403716991,16.360123616374594,133.97719967436532
159,0.1464465183058148,0.7534798113424599,38.46583478103492,23.53358054453463,77.63858293741326
160,0.1507760532150776,0.771223360414459,43.09366138955316,20.674884212864846,90.56036281507738
161,0.15536938309215537,0.7797996211100187,37.58892706603423,29.59114699631493,105.37898710016954
162,0.16025137470542028,0.7614641662865322,29.723235967520523,41.83669629829166,146.33482241944256
163,0.1654501216545012,0.7306415315215308,35.420020981149634,41.01132923399984,125.30913813307879
164,0.17099748533109807,0.7426326532705586,29.12126882593405,17.00014541594589,47.601222983331645
165,0.1752988047808765,0.7508690940310483,51.31520755596539,23.73898348437922,105.29513955275947
166,0.17813765182186236,0.7536832543219688,30.34382204459577,22.24780266154876,97.30801757785353
167,0.18106995884773663,0.7510608998679142,17.44458171462561,36.197560842278406,89.40449796051924
168,0.18410041841004185,0.7458208913571287,40.86924290972314,25.850597406163505,102.66465463102388
169,0.18723404255319148,0.74487895716946,42.30803438222691,31.058104293727656,72.18974941658465
170,0.19047619047619047,0.7473590749246699,17.09499133387385,30.084327658165577,97.90689930278916
171,0.19047619047619047,0.7532324739581475,15.539799766739257,27.277068289875967,97.38414856902862
172,0.19047619047619047,0.7630385569530531,36.56510470123394,21.64942961666671,67.56467511873782
173,0.19047619047619047,0.7584843278986095,28.894830017734943,16.11164425576386,54.00956503430608
174,0.19047619047619047,0.7525604028744411,29.670637787376915,33.07635905280523,82.83658136464109
175,0.19047619047619047,0.7514914077108006,29.820622222812673,29.55879202047322,99.1510674875245
176,0.1932367149758454,0.7656717771931415,29.92407933680488,27.7548793083318,83.04319806043644
177,0.19704433497536944,0.7687252158116661,18.218890551954754,25.582016252245268,64.57775366749877
178,0.20100502512562815,0.7618109666019757,20.012996587047052,37.63547393043878,64.38843760055931
179,0.20512820512820512,0.7508647599763774,24.38201440197915,29.681063018062872,105.39989771028311
180,0.20942408376963348,0.7466651752006489,20.01811908753496,39.31058017699802,87.06104812922051
181,0.20306965761511214,0.7481575745710329,17.913072248690405,39.27058585578625,66.57584304903901
182,0.1939120631341601,0.7502604093353228,26.4349394956416,21.421589526403594,87.01225884507365
183,0.1855447680690399,0.7503927289048477,30.08384846871216,39.74528174708261,73.40340366849821
184,0.17786970010341263,0.7441304105930794,38.648273264111886,27.375901903792975,71.39472867426117
185,0.1708043694141013,0.7472153681011526,28.594738231248936,35.33500026256941,82.69194816268406
186,0.16912487708947885,0.7556314920326266,21.126726600419666,17.732182646007367,66.64327327867176
187,0.1760491299897646,0.7661481734983381,27.51416751820407,18.529396688336863,56.82925493690651
188,0.18356456776947705,0.7718286258707164,20.247119959611314,19.214845127894467,105.86547960868752
189,0.19175027870680045,0.7616856117151041,35.8358968824477,35.21923723853004,110.48088487689591
190,0.20070011668611434,0.7610179248322825,51.99117731794976,30.407044140536726,141.0580062409205
191,0.21052631578947367,0.765522171912522,23.998393014537786,27.522675247139432,93.81657420902029
192,0.20240963855421687,0.7676854904515006,22.02947208407324,19.166929285308825,112.8467302786812
193,0.19489559164733178,0.759899887355165,45.085437175718745,49.441198172002686,128.2939168667057
194,0.18791946308724833,0.750869845701535,50.94165008732288,77.17066619206186,149.63309418027006
195,0.18142548596112312,0.7452579231405015,31.452414392820337,48.519412357949406,109.4775593403311
196,0.1753653444676409,0.7464780827299765,20.186649208176238,37.41783177005771,89.16896545311529
197,0.18099547511312217,0.754952602599761,20.031408378042116,31.277092967298685,48.91661389092832
198,0.19138755980861244,0.7590925459128555,26.766427785874342,25.84626989036532,98.893670154259
199,0.20304568527918782,0.7563671585664641,29.07563431721261,40.77224066518884,89.53928020400058
200,0.21621621621621623,0.7468996617812845,14.219191787695795,27.293912058717964,85.38434977437602
201,0.23121387283236994,0.7597477064220175,9.053080120828149,20.885825199994443,82.81388183962501
202,0.2329450915141431,0.7633587786259541,19.826744165413984,14.212895756782313,102.47785472429605
203,0.2298850574712644,0.7610691105682363,38.48946762779738,22.11096616309689,111.61186543053027
204,0.22690437601296595,0.7558245147870194,42.05952970261232,36.421954990051375,71.47789213100202
205,0.224,0.7526077041208997,20.181615041980333,23.35458812361765,92.23527346960677
206,0.2185792349726776,0.7560262574558536,30.853321707798706,30.139899538475092,81.53593013292391
207,0.20942408376963348,0.7527655491590483,33.909224842873435,44.179022460237505,56.26015050135586
208,0.20100502512562815,0.7412101840626031,27.78199328028195,24.50240626030127,89.13588653566565
209,0.1932367149758454,0.7453175218885069,23.00459887349423,22.412310552804453,77.88514875341502
210,0.18604651162790697,0.7462686567164178,36.561176718515775,33.78997445569676,75.84888646951205
211,0.18433179723502305,0.7521947893286351,20.167778327813224,31.961340376455674,49.35391803330858
212,0.19138755980861244,0.7648183556405354,20.38226041643561,19.46126216275185,76.57044202299988
213,0.1990049751243781,0.7648183556405354,38.676208034862455,25.67199401536181,72.4723712051769
214,0.20725388601036268,0.7560705809070706,24.159415172408785,15.502465634381899,74.70822274958854
215,0.21621621621621623,0.7530189958090692,35.015493336029586,24.594511804774957,68.47567895616649
216,0.2222222222222222,0.7595931374688948,37.50191794537088,18.42438724832507,92.54322620890194
217,0.2222222222222222,0.7730928155684885,30.565530774240752,20.834926914613074,84.72238948521907
218,0.2222222222222222,0.761796558077885,46.342233041642395,8.244406832334475,59.29969403738051
219,0.2222222222222222,0.7507026844480721,34.961096652226836,24.038535709804247,110.9245298286026
220,0.2222222222222222,0.7479141309908091,43.07969076047555,29.29720470768538,74.02802210304111
221,0.2247191011235955,0.762987889366755,22.714055053763733,38.18803462177659,70.58801092167089
222,0.22764227642276422,0.7648183556405354,37.82711218628733,34.61452688229318,41.01448792205776
223,0.23064250411861617,0.7560546784449533,20.28740864008559,23.75234526976936,85.7328525888036
224,0.2337228714524207,0.7490769290677947,28.15719370177976,19.42147445290135,56.58747361238638
225,0.23529411764705882,0.7664417326799007,19.852238127098076,25.33222241888125,69.97567687337367
226,0.23529411764705882,0.7646322813846799,24.56144771149119,24.800143541946667,50.137560375744144
227,0.23529411764705882,0.7626705830176745,25.66923148047063,26.563491793839308,34.12661045486404
228,0.23529411764705882,0.7636237417563341,35.444315898628254,16.02300847992055,82.82677658873173
229,0.23376623376623376,0.7692250906164876,24.451838049159527,17.120903685846564,96.87952634038109
230,0.22784810126582278,0.7669603491804126,25.440493484890485,22.589340845828847,60.97474231695227
231,0.2222222222222222,0.7578070285704035,26.836061429764587,25.519222877704333,101.86586482239676
232,0.2168674698795181,0.7512771358265281,18.111088596762208,41.84172817649275,67.19650558458139
233,0.21176470588235294,0.7540171720402655,48.29372745923816,29.48435395377166,99.95362459674634
234,0.20883534136546186,0.7683771420618716,28.781844650499874,63.21472166131685,127.8525038953817
235,0.2066225165562914,0.7696609861883265,13.384399369415146,52.08072226644692,115.68919607421347
236,0.20445609436435122,0.7609193000407135,33.091204100395444,23.200658533717956,81.48903424753928
237,0.20233463035019456,0.747790380855447,13.466638776204686,23.960700541974802,49.87515500519452
238,0.20025673940949937,0.7488380401318346,12.222533066687356,39.09566607263864,81.09617611584126
239,0.22262118491921004,0.7490636704119851,14.74897804638581,34.139472748345696,79.29684536828476
240,0.25567010309278354,0.7509669405155129,33.00172809605194,49.79867373044486,81.89138894506048
241,0.30024213075060535,0.7572203249282582,14.688428202479614,22.27742993708864,56.52141909546968
242,0.36363636363636365,0.7787457032462679,37.65323815715506,14.292029340503195,48.71784227999411
243,0.2962962962962963,0.7676123779344738,21.504121263182768,34.11424880362958,65.69849444353093
244,0.25,0.7578775123531883,38.13163308486698,41.490245791866336,54.888694296234334
245,0.21621621621621623,0.7581232654949112,9.342209686485118,21.238003914842903,57.31281488007873
246,0.19047619047619047,0.7681155175443725,16.893211676658535,26.69623771476091,57.66300981952253
247,0.18880351262349065,0.7860476541390302,28.197348006138625,17.925200724924185,151.04434383370983
248,0.18715995647442873,0.8103448275862043,28.630329471534264,42.97056368629924,150.0250003228828
249,0.1855447680690399,0.830308862813469,21.97157906456344,18.858703474345738,38.168838704105546
250,0.1839572192513369,0.8100745465056232,62.98599912524114,19.748931463739442,47.573655261052764
251,0.1823966065747614,0.6910177363367787,46.98707506970869,14.122264866708896,85.1943051495249
252,0.19310344827586207,0.7043403510609747,35.81046537350316,16.349189972484925,72.15256694285843
253,0.21439509954058192,0.7296300495534846,31.07764594434726,31.532870402756775,59.17153330035455
254,0.24096385542168672,0.7356704633086053,77.60875689889087,23.654982015478687,38.78887972300787
255,0.27504911591355596,0.7458504286218364,42.944707561242154,35.46845486672606,24.410094694325736
256,0.3015075376884422,0.7542073181567762,88.47583962296048,18.12862153960928,32.69508045198228
257,0.27906976744186046,0.7638708163960968,43.31346481302909,34.14500013234657,27.04876556644131
258,0.2597402597402597,0.7769872433234751,47.5646160769364,22.145514680655868,36.97800403488198
259,0.24291497975708498,0.7817232196939385,16.804032876338884,41.37091122778549,29.39886586584405
260,0.2407766990291262,0.7818470850784142,67.13203572182361,32.93633303406992,26.497263530484524
261,0.25254582484725047,0.7830475197104024,157.7809462413833,50.08749357463343,37.5798736081135
262,0.26552462526766596,0.7937494237298968,58.76003622872489,32.579323860446024,35.631031930389774
263,0.2799097065462754,0.8310632993212954,46.04735614263544,13.376485554608166,44.44804649887816
264,0.2822384428223844,0.8971099617194065,54.66377268711292,19.41350187788678,66.12061092702459
265,0.27684964200477324,0.9106637796172932,83.09676407190618,30.651184156358955,48.524262819211174
266,0.2716627634660422,0.8508216808087936,39.41632134034018,31.863207795434775,49.75445964006651
267,0.26666666666666666,0.7888598727595446,35.62932954566539,23.249078653205267,43.384677604085674
268,0.26215644820295986,0.751803026200583,46.20910005445174,34.651991310212956,45.511416163563844
269,0.2577962577962578,0.7424049336245554,62.85445960133084,16.592332585828125,89.08546818844064
270,0.25357873210633947,0.7672345706871222,22.814946918877123,26.704261098501203,53.00405773788329
271,0.2482758620689655,0.7797745038057698,25.794747499047013,26.073022781213567,44.11661984934082
272,0.23529411764705882,0.7805849446673974,21.253041774904887,9.488476717583538,52.31980046996894
273,0.2236024844720497,0.7742146402353866,48.28673391378939,22.374272015215293,77.11754768343019
274,0.21301775147928992,0.7628781444929297,34.8556127627248,28.71837145911175,52.421739177697155
275,0.20338983050847456,0.7692421267108605,33.1167251229092,21.719171747711208,61.78957458919913
276,0.20413793103448277,0.7843863874992247,18.64476327112912,24.750739650946542,61.59321604983452
277,0.21112696148359486,0.8010809767396959,26.908274112032405,31.81014804935846,57.90683041106526
278,0.21861152141802068,0.806268821034225,28.035052454189085,19.913343737072502,38.09882688795653
279,0.22664624808575803,0.7893539224455882,32.849057047919494,20.560838877181467,35.23325639205289
280,0.23529411764705882,0.8235650767986966,20.617859636200173,35.59217886111068,68.9347954922394
281,0.22929936305732487,0.8158737983731953,39.96380596396894,18.69565023184175,28.313789425980005
282,0.2236024844720497,0.7561410005466549,18.342359358395743,20.985361084244932,93.22302255043215
283,0.2181818181818182,0.7333800817527274,19.05843068565511,33.15144009858195,71.01144716768596
284,0.21301775147928992,0.7575622981284741,9.861538306734706,24.796140944813214,69.38394706424586
285,0.2117310443490701,0.7907244650462876,26.972280391073678,14.830828447671568,44.77887954112304
286,0.21418234442836467,0.8250257820556829,36.78645466691572,18.279814226854995,50.558741021478944
287,0.21669106881405564,0.8447629443310835,33.273905881577,18.964298870388717,42.47655856819518
288,0.21925925925925926,0.7914916667003659,9.085912217728964,13.04747557217357,56.25849510769406
289,0.22188905547226387,0.8333297830189746,22.689594430375966,21.853251240957256,64.49298389193092
290,0.2222222222222222,0.8655783063268491,33.466440654787306,21.728780818731767,53.35779238324582
291,0.2222222222222222,0.8043426578968536,25.168105240993118,21.564787034426477,87.03736756081926
292,0.2222222222222222,0.7206415611496133,12.442017222372456,24.78959104592397,50.726216667838656
293,0.2222222222222222,0.7370743714076814,37.025002837222075,23.578016942896895,39.62300592122197
294,0.22328548644338117,0.7703238077054334,29.342075497657603,32.13885855997667,60.57785049771139
295,0.22617124394184165,0.7833998942180198,32.432659789708126,34.97416949266204,59.90475179982608
296,0.2291325695581015,0.7743857036485509,36.71312285210238,32.67995768449351,44.668576658054945
297,0.23217247097844113,0.7607900512070261,42.82707171158943,22.003802083847106,71.33747759431425
298,0.23529411764705882,0.7703130366064842,22.94004897095361,34.22766829694208,61.224898950449045
299,0.20956719817767655,0.7713765016550758,31.09811281641055,16.259435599438383,48.80758771973651
300,0.188911704312115,0.7642016562545434,10.018064472641447,22.79134778526314,91.66031093343997
301,0.17196261682242991,0.7517524435480464,43.43204527339317,20.43544089208351,75.93050376840034
302,0.15780445969125215,0.749637839130252,26.17887156524049,27.317869555432615,83.02869479082112
303,0.14580031695721077,0.7475408003577023,30.470534000011966,31.08970857581564,65.23831983631545
304,0.1394700139470014,0.7499647241427945,47.632673531861855,22.390716658541063,47.357183129600564
305,0.14598540145985403,0.7596215703449535,32.72434084548944,20.518037808880244,40.018655342501795
306,0.15313935681470137,0.7696925280900927,15.685053135264507,16.56531147974706,53.651466160265166
307,0.1610305958132045,0.7687531415392812,24.66468814100902,16.35847095954645,49.25211161648119
308,0.16977928692699493,0.7612471742129348,27.279726455558784,26.491699052199966,51.753924237492605
309,0.17953321364452424,0.7514428477359887,17.158146261019873,27.763754161149496,57.73441734124319
310,0.19047619047619047,0.7482809524978353,37.30041933419287,18.744786889248967,40.9195142657442
311,0.19226260257913247,0.7615579423484709,37.68747924058379,16.36401058226255,82.94661677660392
312,0.1940828402366864,0.767407244059762,35.51108465115077,27.64661671402229,81.02443811858005
313,0.1959378733572282,0.7585667567183314,29.76875083393737,19.97680078860664,72.79380602737734
314,0.19782870928829915,0.7406636123837325,22.432588526124825,19.95064486177447,72.27575656665117
315,0.1997563946406821,0.7414425176092589,29.778630425512237,25.48757083171332,63.21775426812328
316,0.20584144645340752,0.748162898973465,44.87500396311423,26.458946937549218,68.23475267242628
317,0.2129496402877698,0.7563208603596993,32.161300230743024,18.65849914218035,55.067471989532535
318,0.22056631892697465,0.7574047601133596,28.85548601468837,33.98488704840493,39.77440511015093
319,0.22874806800618236,0.7530457186050568,31.52542587922259,35.3600730731498,57.168907337179405
320,0.23121387283236994,0.7646989686480711,61.461537006432174,21.47065330232007,50.74971223568429
321,0.21621621621621623,0.8032666175781366,75.89107481703005,17.808777498574642,42.450580127851424
322,0.20304568527918782,0.8852452515960153,51.344024001110135,21.598911811442573,48.57942224797817
323,0.19138755980861244,0.9049819611658323,20.809672358631843,20.826517119517153,44.24389365967377
324,0.18099547511312217,0.8566573511031309,40.96467813485213,15.52445260868656,55.596611751285444
325,0.17879948914431673,0.8940703834262049,47.07975353053605,29.670628524395333,54.292029124243854
326,0.2014388489208633,0.9075158815279313,46.08955521839682,27.114003918963206,67.4677324428781
327,0.23064250411861617,0.8166407968186514,47.19222083672019,37.282192078819456,34.090396976770634
328,0.2697495183044316,0.7341183560405481,59.8785251248832,24.918996772033225,47.9285572856929
329,0.3248259860788863,0.7655748417252507,46.815937635542504,22.18980243011629,57.09105496068619
330,0.31901840490797545,0.8330347168061225,26.4432010197925,26.190657752201467,48.22318196624259
331,0.304093567251462,0.8521811021118297,31.09014515886521,27.901399621957516,78.00897276584243
332,0.29050279329608936,0.869577572855531,45.6972059027441,21.837103125526223,94.09995296234287
333,0.27104722792607805,0.8901666716065509,28.70327054166114,32.67515081233019,58.16715386289275
334,0.2504743833017078,0.853168039280578,47.77579143856467,32.118532326786124,43.948682955354386
335,0.2328042328042328,0.7595754240143853,51.459584727237946,18.899616125149446,64.17207362651112
336,0.21746293245469522,0.7288747574908452,39.61836753308035,32.25022516793396,78.39105135818144
337,0.21439509954058192,0.7501511551062199,34.4984539777197,18.664858228548866,72.32140468574644
338,0.22257551669316375,0.7835997188259828,44.541096765862896,19.911394886965585,56.29746366216157
339,0.23140495867768596,0.7833687092694974,46.20770481578331,23.350712549063555,92.24346522098327
340,0.24096385542168672,0.7476688752567939,28.861001515386825,28.421807879637008,90.24753421653182
341,0.24581005586592178,0.7527645543315741,26.574288357860414,18.56745936767702,72.84397650357143
342,0.21674876847290642,0.7647749768554936,33.095632800973064,43.68598346345915,70.06633673749204
343,0.19383259911894274,0.766325349867915,27.22581446413799,40.180391806059276,68.02317903017236
344,0.1752988047808765,0.7542493678774316,43.0351066955572,21.062931973547293,57.07422199340308
345,0.16,0.7443686740802936,28.620291586072106,26.010173987066835,49.59367669003395
