time,breath,heart,delta,theta,alpha
73,0.22328548644338117,1.0348544735896514,47.92658841689192,22.267915028349652,26.816341410128643
74,0.22617124394184165,1.022302284429849,31.085187847645336,14.521762036114701,18.748257433349842
75,0.2291325695581015,1.0438306565463635,18.350489280828555,19.734614196394432,25.968779335988422
76,0.23217247097844113,1.0358843034899374,24.11333084959721,12.339435650493755,21.15914479909302
77,0.23529411764705882,1.024,31.412050785497552,12.896507537224217,23.443453389202713
78,0.23529411764705882,1.0213741916987864,35.385910646525446,15.081361160510243,19.354871212709583
79,0.23529411764705882,1.054170798527657,28.79822412796547,11.002720602433342,52.80594921987077
80,0.23529411764705882,1.058087087756607,19.796303595432363,28.923811496390194,39.230625543521384
81,0.23529411764705882,1.0433565034755214,36.84823092924971,15.789843673709573,37.57563331726263
82,0.24060150375939848,0.9889882581979681,53.97309186433563,14.048324015805035,22.468172819473075
83,0.24806201550387597,1.02457972290805,55.45196431228778,7.112939394582041,16.092530976512414
84,0.256,1.0939975733352365,114.54675887344152,11.670245757003112,26.857239093551783
85,0.2644628099173554,1.14726971869829,233.85920024140762,16.401325480584667,58.600927965915645
86,0.2703962703962704,1.1346218387854619,128.10008729762345,33.765425740790064,51.171127225728185
87,0.2755344418052256,1.1507481725960271,63.67293231329981,19.54301937389687,63.374586240298456
88,0.28087167070217917,1.158371040723982,90.36699318984333,28.578816618702625,44.02862541206798
89,0.287292817679558,1.1739915207992275,195.4742082861723,42.504506602119214,72.19460375254056
90,0.3005780346820809,1.1768494195407169,318.37478944699933,27.66819576832446,84.3309056806121
91,0.3151515151515152,1.1951240598253654,114.9716706152248,38.94180887846989,83.90804971430131
92,0.33121019108280253,1.2377139378614408,42.22594751430395,40.961638177792224,64.5225746836644
93,0.3076923076923077,1.2306840976689493,230.81121055897503,121.14155977346232,116.5658572657107
94,0.2828282828282828,1.1634911390298692,171.63385462758282,15.517070065768458,17.84566472223957
95,0.26168224299065423,1.1040276006900172,100.69827914122715,39.598227661892565,78.23347987731582
96,0.24858757062146894,1.1099648650669058,194.98878050363362,20.848687876928143,38.70509977422834
97,0.2448979591836735,2.279743528853004,58.22690583004233,16.72160320285726,23.232431470268466
98,0.24131627056672764,1.1764508835105938,60.948552880710594,13.169664408820498,46.09606827988644
99,0.23783783783783785,1.1416844265530035,50.67417297046951,27.6552914458861,34.524523871147
100,0.23376623376623376,1.129206027012257,46.075121968446595,49.26040908118165,53.92742046045265
101,0.22784810126582278,1.156044852191641,59.151959152601364,40.96320444386035,73.40172258768095
102,0.2222222222222222,1.1263340682496634,154.2460578676983,88.26813985329693,85.14777053793665
103,0.2168674698795181,1.0484971038831956,74.30318080479891,55.568340742255884,49.67662752738849
104,0.21176470588235294,1.0610137246908546,59.27078036016364,21.881855707794262,42.83913445859862
105,0.21864951768488747,1.0666666666666667,45.45939390327868,24.192734525495332,43.4235904854264
106,0.23050847457627122,1.1126317736267801,98.35283129909907,27.085658957527702,31.868612563910666
107,0.24372759856630827,1.137456977852101,37.312776247525406,16.932432376198534,28.287941986870877
108,0.2585551330798479,1.0829141309318606,14.837973923981266,12.35967449355569,21.74965991339622
109,0.25531914893617025,1.031086907193102,21.921582788967076,11.391518665365592,15.290689184603568
110,0.23529411764705882,1.0062617121440651,26.26963471289742,15.314056080376625,18.869714714624745
111,0.2181818181818182,0.9681881051175656,83.38993156986925,14.72371878072848,24.381966476924156
112,0.2033898305084746,1.003944956978225,62.87317651078651,19.41061224921899,34.06103800677184
113,0.19047619047619047,1.0613598673300166,131.2994397319404,32.70631592402047,34.345879188952495
114,0.23529411764705882,1.1631766100355592,296.7882927014655,23.956626563493707,61.70009055223515
115,0.3076923076923077,1.343488440939796,133.28606792063715,25.99126713804608,41.331556332928
116,0.4444444444444444,6.110419261104193,315.1134250180164,43.825568310116694,62.04772293900911
117,0.6315789473684211,1.1319280205655526,428.76389445260793,79.68127782753106,88.38396283023432
118,0.8,1.2809263557185995,295.5044123294908,17.66777594367003,19.246023614287296
119,0.40310077519379844,1.2427184466019416,102.39046558085691,7.5619897064621915,6.5858240987217
120,0.2694300518134715,1.2972864220506501,135.0763552554508,20.189270459892526,16.42357231369332
121,0.20233463035019456,1.2675704259205847,172.06107383367288,19.282184012748903,23.41155490549393
122,0.2184557438794727,1.277451468392235,138.4964386672013,15.298450023051522,27.357734772325376
123,0.2716627634660422,1.328140744573654,102.72929562269736,15.612227289752346,22.43637644027744
124,0.35913312693498456,1.3098428104230404,204.01893742547298,38.613978221201876,40.72549727101815
125,0.473469387755102,1.3566870027270939,235.5173523984103,35.97398501550278,50.37712223975558
126,0.332378223495702,1.3532562729066817,143.99404802516074,20.361167143216043,34.160809347464934
127,0.2560706401766005,1.318273539662989,65.58485134020232,18.77840045300584,26.964422851281526
128,0.20825852782764812,1.2921382685836647,47.42685640048414,12.234684671831062,27.370556915645217
129,0.1955085865257596,3.023436058313342,316.20073738044584,28.882313427205755,123.40950134336336
130,0.20641562064156205,2.384878487848785,446.35179346786504,37.593905459499375,99.85397085929992
131,0.21861152141802068,0.6925207756232687,351.8838871894961,35.006352571542486,37.39791063928956
132,0.23233908948194662,0.6293282186007875,219.81039597530764,25.56247100295608,34.63275665398721
133,0.24790619765494135,1.3753633928062474,91.29816593821874,23.88076568234748,29.98520867306963
134,0.24372759856630827,1.3629361123697326,57.98015274824331,16.2097350817087,22.927657075035405
135,0.23693379790940766,1.3712965636731158,63.85823597791484,25.41360782545278,31.72136160476048
136,0.23050847457627122,1.3217483163871648,48.41081321968051,14.890234051517293,30.086643978776916
137,0.22442244224422442,1.2694162811300325,42.40720834723294,8.272727983208403,15.071902189000342
138,0.22056631892697465,1.1799410029498525,42.22501336566374,10.884392120133313,16.218152142725177
139,0.21796759941089838,1.163276661514683,38.36274986913331,10.658599961709287,15.333029535083353
140,0.21542940320232895,1.1975227302674925,21.554183753469317,18.32764683586946,30.84690301386911
141,0.2129496402877698,1.195276784747048,26.501265064842585,12.129021885504521,24.349050163221758
142,0.21052631578947367,1.139127855235835,32.10159843766031,13.086684579644126,36.40194276917889
143,0.22487223168654172,1.0887393677796116,31.26464629421287,13.134605660823107,65.21250350792057
144,0.24131627056672764,1.1284016864699118,28.828692930353697,10.540969448331461,31.582521704767117
145,0.2603550295857988,1.1531531531531531,44.44665378446431,10.312494537650586,43.42609709766916
146,0.28265524625267663,1.0623926731539783,31.361258286862725,11.83143944709283,33.38316530361169
147,0.22940563086548488,1.0452875486522861,52.977585365772725,17.780281385594492,39.58546863945683
148,0.18723404255319148,1.2766352249884028,20.69165777903095,15.769004345191767,32.257714060808254
149,0.15815959741193386,1.4319552513983937,35.41304269734658,11.248576985024906,38.49505670557564
150,0.13690105787181084,1.38732500376336,31.271770963060423,20.22394924211079,32.573059987015014
151,0.12068019747668679,1.3985530977403315,24.36762826032183,20.907971775870188,39.53061975872214
152,0.10789602746444334,1.346879535558781,31.73187644458471,13.732035000381835,32.07827178099234
153,0.0975609756097561,0.9626066320313001,28.764964998761293,15.390448721509276,32.76999236336164
154,0.10458636948135448,0.9109218449630168,16.8347330877993,12.576167271398788,45.200556889518055
155,0.11270207852193996,0.9101173261262171,19.417109654213043,18.18696148708881,32.861952521007765
156,0.12218327491236854,0.9412396172993572,32.99961647433892,11.605377563102252,41.07408134142928
157,0.13340623291416073,0.9764332226299074,20.52493553510441,14.851876077827976,39.2142498460494
158,0.1468994581577363,1.0068946369904215,30.605360312379197,12.443798002798342,26.392305980270173
159,0.16342933690555927,1.0299730162064342,30.96961625390236,13.139407843989119,73.8219477999211
160,0.1841509433962264,1.0056362083689154,37.10951038034693,15.601391552673608,39.353962166676844
161,0.19858156028368795,0.9813264270053123,10.29766678744558,19.95371801094324,52.36205401985907
162,0.19489559164733178,0.990943057838888,16.349812201494018,19.364944813618195,60.85442058951632
163,0.19134396355353075,1.0379337912580966,36.13999288198762,15.459642445383942,55.91967398813197
164,0.18791946308724833,1.0902150034213276,19.96335695866334,9.079551214636616,66.55153282518825
165,0.1846153846153846,1.0748647879305437,12.801412053419858,6.7799918398701475,43.48092608768741
166,0.18163471241170534,1.0629467214529884,17.30919915482847,10.275675935732863,50.31915733984907
167,0.1801801801801802,1.0543764998212979,26.239994567451323,15.963452473984052,35.274984838937556
168,0.17874875868917578,1.0792011382199505,23.2190411103214,21.52637136729357,32.30118705523912
169,0.1773399014778325,1.1172887531072697,28.913681274149468,26.117122096724643,68.99567457156051
170,0.1759530791788856,1.1024553284483867,23.052750605962473,16.59296082317137,46.618864430725786
171,0.1745877788554801,1.0698361396375262,12.91121280313659,8.312771360677623,51.38446004953655
172,0.16611733684904417,1.0480407719943188,23.825349042490455,14.47856964934626,27.0572717917724
173,0.15245009074410165,1.034938991522517,21.32490083012852,10.783660147099113,49.38660368609142
174,0.140860816098379,1.0456676041248159,38.056834955727375,43.03016347952176,59.02107489311628
175,0.1309090909090909,1.0587189828422996,44.24732235049014,13.565228796899543,21.716989369855842
176,0.1222707423580786,1.0427568814189245,18.57681356209566,7.974637301492104,21.81740266994899
177,0.11470186618115612,1.052795135956764,8.871653057830738,13.68402825356238,60.06811531977701
178,0.10801543077582512,1.0721244830728254,13.489362807281324,20.853181350071686,52.554180148086964
179,0.10206561360874848,1.0695007691231995,13.931708235296153,19.861499426997696,66.45456862464636
180,0.10531177829099307,1.076825396825397,25.93098529710378,25.216566512105572,89.59145992007066
181,0.11509338717819283,1.095710773153629,15.491182443030398,15.000965569279696,62.967285024514354
182,0.12687813021702837,1.112228811650777,20.781812794226106,19.305746573200267,41.66476524468357
183,0.14135151890886546,1.110342587462025,25.847261409432107,20.249258794352208,78.22795789596509
184,0.15955213435969207,1.1470269836814884,20.98086847059213,27.411219350366625,69.0117072872238
185,0.18313253012048192,1.1428571428571428,16.5063399605007,9.43489915093783,45.42834818288015
186,0.21489161168708765,1.124191063174114,27.63853397297723,17.068551437152234,39.17093977718378
187,0.22960725075528698,1.0980045652013843,15.638143429867744,13.68338486622459,41.431176997705464
188,0.2190201729106628,1.1003541912632822,9.835866551739585,7.684894938639357,20.344062322213087
189,0.209366391184573,1.103448275862069,24.822025521982606,24.552237417036157,35.67020396279117
190,0.20052770448548815,1.103448275862069,9.676605984642865,13.39617388915292,39.25736333178844
191,0.19240506329113924,1.0988037217545414,13.015494734163504,10.687821314676949,65.97751704856411
192,0.2,1.1082251082251082,19.900415708844214,17.995366872806386,47.622525205095826
193,0.21428571428571427,1.1138718726741856,17.353245633972737,15.93972188667201,43.03180676913057
194,0.23076923076923078,1.1345426022159035,30.208419118524226,8.32775441024514,64.45887670124087
195,0.25,1.1255193738525462,19.05983293232876,15.199901638968806,51.74635513581816
196,0.2625482625482626,1.1116985121969638,25.818320492527967,14.65188144450882,50.915049692460514
197,0.24727272727272728,1.1199603499876094,5.644361543729752,19.04923438188018,53.28070030676336
198,0.23367697594501718,1.135879061549033,14.046762120022482,22.628481025651013,28.041782355614238
199,0.2214983713355049,1.1330101470039842,13.774239200205482,16.536097895127114,47.57197803025842
200,0.21052631578947367,1.0940170940170941,11.008411320155362,12.81643263051276,44.625738694907305
201,0.21052631578947367,1.0961931598430852,22.53594826774156,20.224418036238873,53.178468454894585
202,0.21052631578947367,1.110712870913584,32.17623201782662,20.887693846515567,31.530590077387252
203,0.21052631578947367,1.1160882202085827,15.80452546843739,16.17608761474943,38.3123377555109
204,0.21052631578947367,1.1130434782608696,17.493334217991816,15.147369160035467,33.759832085146584
205,0.2089171974522293,1.0906707450294952,24.484441698971867,12.697020434950144,44.40758197126468
206,0.20271940667490732,1.0696129505961331,18.034472816941328,15.681551245119817,29.75532335251057
207,0.19687875150060025,1.0940170940170941,19.70112906741866,16.702842657534553,24.541003636348798
208,0.19136522753792298,1.1157795216034794,16.639251962633324,14.092535431862792,36.25059869222628
209,0.18615209988649262,1.0905018085672842,28.052563780189278,13.216066997526628,28.78348086907945
210,0.182883939038687,1.0584343991179712,14.469428913051825,15.30654269221017,34.02837151850818
211,0.19188191881918817,1.077938100091187,20.472553403360205,14.882677022591766,66.7202123530797
212,0.2018111254851229,1.1023580948830274,12.142858056104,16.256443695198413,44.81143337557097
213,0.21282401091405184,1.1179039301310043,6.836258656176267,20.43546566248667,46.781168040946
214,0.2251082251082251,1.1118061574405547,12.513118915734132,21.227399220464623,45.06261789095643
215,0.2324159021406728,1.093617642763254,15.754357705190634,20.723930982950744,43.846898530005035
216,0.2215743440233236,1.0932799125842287,18.451614721024598,17.878403907817244,46.85748285654377
217,0.2116991643454039,1.1159061253049414,21.46982988673225,25.246705615713463,64.33351420111143
218,0.20266666666666666,1.1146518614290604,16.98178974184849,13.985057238348777,42.24261074220884
219,0.19437340153452687,1.0781081275646103,19.199970932564455,10.512886448315328,32.97859819141105
220,0.1923076923076923,1.0849815257552706,10.662744060573363,19.273110945694352,40.76645755865836
221,0.19607843137254904,1.1055200901239204,22.06311486045594,10.47183071695071,24.292090016232148
222,0.2,1.1295446523120367,31.622884041248547,15.254391419858608,48.97154854979158
223,0.2040816326530612,1.147464051501113,17.91552932203119,18.143341138499053,49.19479841151996
224,0.20833333333333334,1.125193199381762,15.378828847198612,15.20020525606013,43.57615241206979
225,0.20939597315436242,1.1041472593807058,21.69444460209192,30.38214011346046,60.367865244443394
226,0.20717131474103587,1.1055639321680535,20.068776657261477,22.94347525032356,46.80044570257021
227,0.20499342969776613,1.1286998803689268,35.490470452712316,11.581069564424148,36.73105685995199
228,0.20286085825747724,1.1279178338001867,22.19322637572541,15.191824488594282,60.18894534992985
229,0.20077220077220076,1.0972295682941509,30.15736180710711,20.505727758497052,46.19985645579025
230,0.20129032258064516,1.082467007810396,38.854435527308695,31.491490569118547,67.51705130984945
231,0.20338983050847456,1.1001095208925025,20.499451962391802,16.293706004802956,40.484744533719024
232,0.20553359683794467,1.112560805460236,32.42561348546823,13.3833447201893,25.23724452228369
233,0.20772303595206393,1.1269878209603599,17.394776398700802,20.67914715892277,23.15234768014657
234,0.20995962314939434,1.1531531531531531,20.244030200911297,12.006406824118095,21.614681320288106
235,0.2298850574712644,1.1531531531531531,27.578650364047494,12.45791444807329,18.261782211299803
236,0.26200873362445415,1.1886608015640272,30.10637721376927,10.385434473390333,20.629678451787125
237,0.30456852791878175,1.1568651727126409,25.07638943553241,9.813189019762152,18.39257087453262
238,0.36363636363636365,1.1804363035044203,27.926222714058408,14.751975249237127,21.390116228391186
239,0.32047477744807124,1.171434554973822,24.543654954056166,9.29615985471612,24.797741798204655
240,0.2864721485411141,1.157575260438028,26.31802682916247,10.085318710603229,20.966827131397974
241,0.2589928057553957,1.1817626104002867,42.135706581184394,11.952305637889797,39.42644574986937
242,0.24347826086956523,1.1397348983102296,26.83964868769091,15.411732187484073,40.71574683430525
243,0.2337228714524207,1.1618481712939248,36.76829857735853,9.114285034772411,35.64969649796221
244,0.2247191011235955,1.1399073982858832,44.39424835147646,12.166549854610789,27.439944504238795
245,0.21638330757341576,1.097778184145561,59.39897072229901,10.361780378735633,43.70425741151617
246,0.21763602251407127,1.075022937398546,74.03503141784014,15.21489381470676,35.46585802553287
247,0.25162689804772237,1.0975927728099006,85.69268161561483,21.572964020800626,44.030210484994925
248,0.2982005141388175,1.127687938329566,136.19969980856604,15.246755124689827,42.23210492449073
249,0.3659305993690852,1.1298014020972875,340.7880810227476,99.33898997905904,106.46565074613801
250,0.3368421052631579,1.1465652805700979,317.6458397390278,64.03409121358838,36.282612395291636
251,0.2689075630252101,1.1596214765642339,63.7210406897937,13.404196960949399,10.721933690629196
252,0.22377622377622378,1.1189838549238658,104.18603925893855,21.811452080103955,12.738226087521296
253,0.19161676646706588,1.112917795844625,88.48277247084206,16.079276144935815,2.5849356081404924
254,0.18489289740698986,1.1461687057308434,92.30117187528121,11.061029230889329,14.327372401790372
255,0.19003476245654694,1.2246146820413288,60.97566465110251,17.205450675799405,49.801058194349764
256,0.19547079856972585,1.2007291157248923,61.85701595639593,2.7295388135532495,6.704070779532035
257,0.20122699386503068,1.1526874772846585,40.75939194726563,1.698756541952103,4.736165846943806
258,0.20733249051833122,1.1352108293138323,24.944279561570063,2.5302090172531937,4.264928400697719
259,0.21301775147928992,1.0977057831855164,19.468678251728235,7.367596828312552,19.615285832465972
260,0.2181818181818182,1.1016227670687957,57.22958299392492,32.957094164700194,101.7790993902229
261,0.2236024844720497,1.1201409367699435,33.46516870036947,18.971818305819202,51.167802319830884
262,0.22929936305732487,1.107001123174841,27.110445397214875,12.428088628655834,48.957344677827365
263,0.23529411764705882,1.110493502591452,25.708130843637967,14.343398048064133,43.60980623533122
264,0.21101992966002345,1.1009474270852684,20.815413709307542,15.516097374747053,52.82475726773731
265,0.19128586609989373,1.1410513995903637,15.39264610306751,21.803822946164978,37.01501721773981
266,0.1749271137026239,1.1223546115620024,25.73920153780857,14.5210652871606,38.27400559038433
267,0.1611459265890779,1.1128135796905514,18.107852131681568,13.17158282256434,39.814855748028265
268,0.14937759336099585,1.099933328394696,19.7441056202398,21.179352029462137,46.18519334450959
269,0.1447178002894356,1.1130434782608696,24.469690569808122,26.851916046043208,37.8921525479606
270,0.14992503748125938,1.1130434782608696,21.223940430871153,15.543139425843348,23.512371003723548
271,0.15552099533437014,1.1566265060240963,44.50569720851958,15.189848640573473,40.370351530081386
272,0.16155088852988692,1.2493899463152758,32.09206789599712,20.054015583067667,28.32027951817858
273,0.1680672268907563,1.3391974212582292,39.32578880920134,23.76251689179367,43.52002720481876
274,0.17513134851138354,1.3402773970725288,34.773418282581176,12.536038271530591,32.144106164007674
275,0.182883939038687,1.3355913684785579,68.69331519551103,18.858807636188644,42.20493570499061
276,0.19188191881918817,1.0673393595403264,47.13985893119464,17.816088116516916,56.98574906309026
277,0.2018111254851229,1.0958405939843927,280.5759471311636,39.44863403547065,28.707101583826635
