time,breath,heart,delta,theta,alpha
5,0.2822384428223844,0.8578881622455727,572.3385420968636,268.7637363507326,196.92413014315846
6,0.27684964200477324,0.8469287688330214,324.4752185584007,201.79845235145854,147.93108281101118
7,0.2716627634660422,0.8348303920532602,340.82002768636215,158.4057345603536,114.3011513942048
8,0.26666666666666666,0.8528554463996546,217.14572759748415,126.23550330496717,101.58307487319703
9,0.2374429223744292,0.8305908164864441,245.85302297060073,114.23382499894315,87.8259613653977
10,0.2139917695473251,0.8152942546713032,160.58522500614242,98.07890961429824,73.75885161179204
11,0.19475655430711608,0.8084404448872266,193.61875030889752,85.98753867402716,63.234053450632246
12,0.17869415807560135,0.8064516129032259,130.5657871300309,73.82335961627737,67.48788224379491
13,0.16625916870415647,0.8065447228224117,157.55732022875443,75.35983914700361,58.67832246856706
14,0.16306954436450838,0.8256090766347567,107.49083296076587,61.777449026979774,52.975175797030325
15,0.16,0.8105787961831808,129.11790192263794,60.62067088397351,49.999880827387734
16,0.15704387990762125,0.797179698913803,94.0202275860351,55.05059964484784,38.44741786388088
17,0.15419501133786848,0.7951593486662865,108.4184975009835,55.59626804352925,40.49577229524703
18,0.1514476614699332,0.7998850464603889,89.55370246022437,44.77113635474552,33.0346410439016
19,0.1487964989059081,0.7973390202756471,102.14546100775804,48.86764389851282,35.29815707906863
20,0.15011037527593818,0.8091750004078503,76.16776814040757,47.143710693734704,45.172969493893795
21,0.15280898876404495,0.8193555969710706,94.35931982245373,35.24122450586854,35.16799022412434
22,0.15560640732265446,0.815814245371823,68.2960999818306,38.31221753004743,35.92864851488285
23,0.15850815850815853,0.7953531336600337,86.19235610273634,34.71502119505136,32.85431673469835
24,0.16152019002375295,0.780685712529391,66.97732272525738,36.51723826750385,31.356218140714372
25,0.16464891041162227,0.7705466716251395,83.75094990359297,30.279208975111924,31.112376700234105
26,0.17309941520467836,0.7786953810588432,61.62012627542308,34.40455054206458,32.825376389124756
27,0.19295958279009126,0.79554243682225,95.05507798916388,24.122735299467532,40.650584583972645
28,0.21796759941089838,0.7905510328925698,94.48107875969589,34.74987264843074,23.47140446542685
29,0.25042301184433163,0.808306605760197,175.58472176099872,42.211049734179596,20.437471685120073
30,0.294234592445328,1.2726662189388849,129.18869690000517,52.53611066320485,34.786965842623715
31,0.31347962382445144,1.4551096573992528,143.3614004148213,28.48648052279376,30.53619630576055
32,0.3215434083601286,0.8477653124205787,177.85645080731385,36.13404146511743,28.305746217329308
33,0.33003300330033003,0.8777344804969328,193.49118699387137,30.715267526192175,29.03726106317244
34,0.3278688524590164,0.8851097144596918,122.72533695396052,53.85536934177478,34.06476834954218
35,0.3194888178913738,1.1151197113807827,78.68597050054257,35.241712093694154,23.120347836216787
36,0.3115264797507788,1.7976031957390086,98.66148682093416,25.65059795846538,19.679331408689386
37,0.3076923076923077,0.8236144080916465,72.4588089596594,22.757988457948066,18.705124180785308
38,0.3076923076923077,1.0144927536231931,40.17406353464722,29.282328254350187,22.21616880741612
39,0.3076923076923077,1.3559469829089674,47.92756689646675,33.20942545600626,19.745379575219555
40,0.3076923076923077,1.6190414758433773,35.812481205929906,27.159088881627213,20.35712678987463
41,0.3076923076923077,1.3363930885529154,44.071603220587484,29.545281620226998,17.819244429385165
42,0.3076923076923077,0.8693289866883982,43.64624811902879,26.487402077939112,17.964847273533543
43,0.3076923076923077,0.8796756674061045,47.69384585309681,23.43974631105998,25.613804349603647
44,0.3243243243243243,0.8794359212769256,35.534949563177825,25.49861342704461,18.79654110685819
45,0.34285714285714286,0.8911596958174905,42.42107354646672,20.311944829264334,19.1767023571999
46,0.36363636363636365,0.8989172592113769,39.938155321935874,21.191753171506694,18.15107872022277
47,0.35249042145593873,0.9015976391574235,37.728666095026064,25.042933856605465,21.5998763993396
48,0.3420074349442379,0.9115504682622269,25.672202816811733,22.28522620020551,29.273706425021384
49,0.33121019108280253,0.9071764134132514,35.10061010827934,23.946796437286377,25.67630662807364
50,0.3151515151515152,0.8677801623588692,35.53242162774231,19.344248951751844,19.353173541502056
51,0.3005780346820809,0.8518823852706788,44.95542495397262,10.929971122942373,16.83027204179963
52,0.287292817679558,0.8540005098510507,26.698873700424578,16.346883745199904,22.598793596845162
53,0.28087167070217917,0.8230312137149102,30.190209621208627,19.98800912266239,35.53003398293055
54,0.2755344418052256,0.8125247720967103,31.68903112197868,16.141555776262727,23.18959798621773
55,0.2703962703962704,0.8253989999315021,39.913656588718815,15.423583411317127,22.47289661797691
56,0.2678983833718245,0.8371964298069605,26.75915658416714,25.06277781703423,26.727420576615422
57,0.27294117647058824,0.8146502390089545,37.58408948477282,15.206030794121961,13.604878591664008
58,0.27817745803357313,0.8205799436165927,26.113215909055015,20.107894333652517,15.130746139868029
59,0.28361858190709044,0.8310201548249168,34.95745893897947,16.576977872594888,19.65125194873214
60,0.27906976744186046,0.8241386312868069,24.600810471601335,15.075835414444942,18.37803879300394
61,0.26905829596412556,0.8079288237603035,29.563571975121953,16.31997811256934,23.91227985684436
62,0.2597402597402597,0.8141181229773462,28.60805604395915,12.351312665838325,25.630283395459582
63,0.2510460251046025,0.8395911556111806,34.53118961626165,22.99400197737934,20.44827776656764
64,0.25357873210633947,0.8316116599246515,25.355477435792103,15.984790051091796,23.55333771395114
65,0.2577962577962578,0.8264462809917356,29.67073238190198,14.258791058670178,23.60193903965083
66,0.26215644820295986,0.8288907996560619,19.129435381856002,13.76764832551546,16.667432884773994
67,0.26666666666666666,0.8320386673571553,22.60651027361311,15.103684258378246,13.77814543996529
68,0.25806451612903225,0.8261118791516339,23.668195913043697,17.67555986297142,14.573397719888762
69,0.25,0.809729979839376,21.363555823490568,15.225666404848653,15.984968002471346
70,0.24242424242424243,0.8149473265752337,21.334077488477316,14.295761115237893,21.378934446774547
71,0.23529411764705882,0.8181225008783523,29.386791004212064,19.950205495943273,15.429796089456673
72,0.24242424242424243,0.8135582032410309,23.031977128229865,17.731408292661143,22.7551034869459
73,0.25,0.8094064352807945,32.193804202796656,18.945110852235562,29.751254945211
74,0.25806451612903225,0.8372958445317353,22.02819897951377,16.509861407475,15.687106197632406
75,0.26666666666666666,0.8683661299940381,23.549537024139376,21.956889855042505,18.16995267488313
76,0.25806451612903225,0.869911303161246,15.903324249100237,20.795967717496655,28.000120780670194
77,0.25,0.8547476850583525,22.726704014985234,20.879945239391436,30.72506652491757
78,0.24242424242424243,0.8463786827335164,16.999386183447893,17.722879144250584,20.150921319169587
79,0.23529411764705882,0.8489330006999657,23.40756912581919,14.518553175538429,24.887274965344467
80,0.23869801084990958,0.8396027160536923,20.663897925927227,11.169772773387763,15.66904761935968
81,0.2422018348623853,0.8251985794918419,28.59818478577241,17.45671729856084,15.493538022797434
82,0.24581005586592178,0.8160608791428855,16.163947742483167,17.35132141677874,18.051395692039186
83,0.2495274102079395,0.8233380768448877,26.091155299374822,18.821908798217507,18.92409254119517
84,0.23841059602649006,0.8252279120208761,18.146313941133748,18.519037890199087,33.53028452255803
85,0.22641509433962262,0.8097165991902834,27.269036762352652,16.582137428186975,25.514238184430404
86,0.21556886227544908,0.8097165991902834,18.72822629923623,13.565238191055782,26.74788557087627
87,0.20571428571428574,0.8097165991902834,18.25798267032495,12.23718600034956,15.513014873827682
88,0.19927095990279464,0.8256179393527566,14.881624325880853,14.778034189565322,29.481519123804365
89,0.19735258724428398,0.8309628480303419,25.020958979075605,13.860540218135057,19.538652014147555
90,0.19547079856972585,0.8238911444442557,12.146175077935021,20.865939349889267,37.091640577678206
91,0.19362455726092087,0.8254397834912042,23.98616508236824,12.857384177974478,15.675891657463058
92,0.19181286549707602,0.8144192256341786,16.94993241322249,14.144476142942521,19.459876777490496
93,0.19631901840490798,0.8299536252716606,14.037776301544614,14.289987401494145,20.226336754678556
94,0.22377622377622378,0.8311158724124821,20.113653981433075,13.070241633525542,15.370751191917284
95,0.2601626016260163,0.8213828856123339,17.56031766711002,15.168525154843445,23.422432746525814
96,0.3106796116504854,0.8142781175219359,18.90928169648974,12.579373105813206,19.593130614359374
97,0.35820895522388063,0.8195628997867801,23.091094694627664,12.524030028049491,10.347087085276735
98,0.3380281690140845,0.8087848500789054,14.765531420056664,10.497570690149635,11.112076327566356
99,0.32,0.8190692698582515,17.66690822174901,12.78687772396239,16.461837990942406
100,0.30024213075060535,0.8218022274721563,13.63999167608393,10.471656215124518,17.82201346632602
101,0.2737306843267108,0.8082935125941513,19.846681307293363,10.956996949875702,20.80916533122347
102,0.2515212981744422,0.7882882882882888,18.02775887810031,8.35319140387625,19.007869705079305
103,0.23264540337711068,0.7982767359351248,20.59440140896627,16.990213688840605,21.767725111998043
104,0.22028985507246376,0.8131151858313865,12.790143862392647,11.444695642501296,16.581788439626706
105,0.2152974504249292,1.0640303854753423,20.16708846597116,12.150542453079197,23.601425521244717
106,0.21052631578947367,0.8817031532435939,11.894647139870116,11.609742043784331,18.716812341142898
107,0.2059620596205962,0.729936892283529,14.758555358577182,12.860901423016525,16.232030211430917
108,0.20159151193633953,0.7980552401362617,14.607136202187844,15.097966672908388,16.169067835175174
109,0.20413793103448277,0.8057874594280368,21.978765751269393,9.65896338288012,23.968724806942728
110,0.21112696148359486,0.7924730843305013,11.783918600481448,8.649067019370436,19.784471086880448
111,0.21861152141802068,0.7890190951958543,18.315966024598982,13.566186828862474,32.304094963749364
112,0.22664624808575803,0.8015675097969386,12.110755825580657,9.023502468319759,20.907582077739463
113,0.23529411764705882,0.8242869664891096,14.785412688745243,9.650340065436481,29.458903720177478
114,0.23217247097844113,0.8106226377561159,15.593256657644936,10.596414799893136,25.376317960199074
115,0.2291325695581015,0.7929850108422088,11.594844433540127,13.360621754334325,25.585171981769307
116,0.22617124394184165,0.7841087297438574,10.691464012135897,16.117939800155444,32.24223378112205
117,0.22328548644338117,0.7891770011273974,16.17734033224306,12.163992713681068,32.32227946307167
118,0.2222222222222222,0.8023802364410378,18.129076622401772,10.353630040453131,18.86940731399418
119,0.2222222222222222,0.775383486014037,20.880316239787863,8.451501530951948,25.065111400650036
120,0.2222222222222222,0.7722007722007722,11.427656243615477,11.011447472752856,27.536263647890244
121,0.2222222222222222,0.7832537281341686,15.600255657653447,10.686199877396826,21.029401689212662
122,0.22257551669316375,0.7991672005124927,16.322748171921024,12.99038107983446,16.39378092959837
123,0.22544283413848631,0.805063129702842,27.228505393241694,6.238221428586067,13.951564416500865
124,0.22838499184339311,0.7826060004959067,47.65159335249784,13.372770556915638,20.91473989567618
125,0.23140495867768596,0.7858606715256494,19.56706102791475,16.218167045788434,27.72250824192176
126,0.23450586264656617,0.803902818522183,17.72388533187442,14.80437299146397,19.62387330758061
127,0.2251082251082251,0.817646571025788,10.821130095961793,14.849477762863039,14.86705761849505
128,0.21282401091405184,0.7986246776588236,12.604833525743565,7.623852213040175,17.356468075104367
129,0.2018111254851229,0.772078265468004,40.820671577631735,17.46684575241986,14.584020078688631
130,0.19188191881918817,0.7662835249042146,14.102906083830664,11.332841872186892,17.646565174443033
131,0.182883939038687,0.7794232268121615,14.679214924434081,18.293682621329353,18.294576609816485
132,0.18615209988649262,0.8002667555851938,15.934022992210918,12.460780630182166,15.673767686240923
133,0.19136522753792298,0.7853036039826099,15.390121499137281,10.621929682411034,14.36680619985616
134,0.19687875150060025,0.7798577368894032,19.79439899078605,9.252752083351325,28.274695347212642
135,0.20271940667490732,0.7860518269141683,21.255580155746955,18.065175900600956,23.98444715701482
136,0.20891719745222928,0.8055009823182737,12.422039521005704,8.4108705483742,36.00042481032083
137,0.20725388601036268,0.8295165394402013,16.054261779327422,9.477395479831875,35.86269432623355
138,0.20304568527918782,0.804938271604936,16.18337202346116,10.473053064303901,21.850510565723262
139,0.1990049751243781,0.7869598416730281,13.53019123528597,9.503930433412492,22.447606587613564
140,0.1951219512195122,0.7704526223594539,15.24243901602021,13.483156640414393,22.871208776652143
141,0.19138755980861244,0.766232615820712,14.580300164961319,12.861914653952413,27.607321093451727
142,0.19812583668005354,0.7805881641050456,20.99566579203659,10.995002835085618,8.47716063535994
143,0.20933521923620932,0.7712543345689338,21.438892572694673,10.245549894989209,20.755729127774366
144,0.22188905547226387,0.7728113624157072,15.021001909478167,15.556362701171134,14.090822030077375
145,0.2360446570972887,0.7881020006866651,13.292074837620117,12.849138737591677,17.879031538111402
146,0.2505050505050505,0.8050935801003943,19.567187771635474,5.278440517809932,14.845971159025321
147,0.2546201232032854,0.7849514487201523,19.745726266719036,14.844066036961067,11.119842677552123
148,0.2588726513569937,0.7938375613812154,17.53414836517196,17.81897251672149,14.712231796329343
149,0.2632696390658174,0.8022121119560155,10.892074666808137,14.838922445013232,20.447045606091095
150,0.26552462526766596,0.800588056696335,20.66083909452217,11.72210445771123,17.90284050451243
151,0.26105263157894737,0.790513833992095,16.245636732184693,13.025685990141351,13.118645223726416
152,0.2567287784679089,0.790513833992095,10.788026035207135,11.113566780136269,12.543283086212067
153,0.2525458248472505,0.8048289738430597,13.966389233315041,13.192673958531667,17.206357855708664
154,0.2460456942003515,0.8133979202142613,16.24584016990054,14.583981856371075,15.506538641070046
155,0.23608768971332209,0.8126328976214411,25.91730068502774,16.87276539832787,18.4094406817646
156,0.22690437601296595,0.8100512481401897,24.06073433668627,14.280229496612291,14.495710960538132
157,0.21840873634945399,0.8264462809917356,25.087220062428024,19.937916466898226,15.46211414500772
158,0.21052631578947367,0.8264462809917356,13.884740174539134,13.00521223941816,13.775064369254357
159,0.21556886227544908,0.8176943699731897,23.92994953098516,11.304564411853953,14.531846424898298
160,0.22085889570552147,0.8176573865061455,25.21329922088878,9.582590740248204,11.332413344090728
161,0.22641509433962262,0.8230452674897119,34.284771204393635,11.596062756066917,13.80045304582396
162,0.23225806451612904,0.8241617609418997,26.098378884925623,12.843556134545793,12.626778755188559
163,0.2407766990291262,0.8326868373416091,25.72381579798247,9.485253609999187,10.388951965368383
164,0.25254582484725047,0.8254293770827986,30.959648928116497,8.55793521038655,15.848023830454183
165,0.26552462526766596,0.8270818024914989,35.293635544698965,11.462247815655509,15.048795093976059
166,0.2799097065462754,0.8342767569450499,47.53514248704012,7.113265932504832,17.061755831484263
167,0.3037974683544304,0.8376029517197959,9.06330209537517,21.510145087115912,14.351967059790587
168,0.3380281690140845,0.8315029808597437,14.523856598883185,15.525916874700753,14.059475620634238
169,0.38095238095238093,0.8462548344746841,22.27795904688786,11.410056331238124,15.633411169830019
170,0.38260869565217387,0.8391929613794561,14.458985540777078,16.28222651616564,12.940780671323632
171,0.35772357723577236,0.8569810148555573,11.862051556710934,12.606859651455666,20.584000372388537
172,0.3358778625954198,0.8659144581474676,23.418755992116726,16.08955258138743,26.075687723618294
173,0.30287206266318534,0.8507653290645169,32.086386970572256,14.777332684928995,33.63638404094644
174,0.27423167848699764,0.8337566341454878,9.12900467304542,17.49228827322466,22.641758805845473
175,0.25053995680345575,0.8513663792317652,9.715725832166267,6.457591492107037,14.121801563738845
176,0.23450586264656617,0.8607818922455903,11.775804409235507,15.633223223341297,49.853305392447695
177,0.23140495867768596,0.8512186249545287,28.33351105054994,12.6523251600811,31.88994489589423
178,0.22838499184339317,0.8432663227183775,15.951011231139987,13.128569158110876,17.296995823052054
179,0.22544283413848631,0.8464849354375898,21.275743645636194,12.098571940512695,18.76423313559255
180,0.22257551669316375,0.862085086489014,8.566108735749014,9.918885612907623,30.17612143413893
181,0.23357664233576642,0.8751579622399503,14.049966114368717,10.64999651212273,38.43520774634609
182,0.24806201550387597,0.8438293865804479,11.448634074377757,13.55026347653169,15.448045812800592
183,0.2644628099173554,0.8408419040201093,10.373798182971436,14.062119818322417,20.19792080753254
184,0.2831858407079646,0.8503891611415398,23.08397156349978,6.380069836438042,16.419875252595055
185,0.2625482625482626,0.8390326447155033,19.215051465402496,9.991287808876057,16.02796307024048
186,0.24028268551236748,0.8330579662255004,21.959170790067056,10.772780893555574,12.876197463990433
187,0.2214983713355049,0.8580226052345034,14.074909100387426,9.19501162296233,14.51885218219997
188,0.2054380664652568,0.9077496823900656,18.18553679673612,6.802975091579596,18.933717874290046
189,0.20740740740740743,0.8962918123059478,8.305218411928795,14.116498702175761,19.30974138443516
190,0.2204724409448819,0.8529854490717496,12.136991065850959,14.549456627049278,19.400244981974538
191,0.23529411764705882,0.8501037812471799,18.0828081703017,11.404758415984604,18.978658813534484
192,0.25225225225225223,0.8756199923693254,9.828527157088246,13.052243077963404,17.506793649957398
193,0.26666666666666666,0.8692209065540379,13.474253523168622,13.54864791555564,11.973765418732668
194,0.26666666666666666,0.8370389746272557,14.054849367354668,16.409809399686583,12.138968925281395
195,0.26666666666666666,0.8273188292919332,12.568441926861247,14.032906275204791,22.042862003286423
196,0.26666666666666666,0.8508820335724586,12.394014663345935,14.233966692316812,15.855793742146236
197,0.26229508196721313,0.8668095815080625,16.32043189167281,12.791716886818232,27.10832767657402
198,0.25396825396825395,0.8363835693950804,11.121483393642857,8.349222978177211,14.90194093723675
199,0.24615384615384617,0.8285302593659942,20.151879181039916,12.674172362685772,13.034518905667865
200,0.23880597014925373,0.8398161244695899,15.320183602893156,14.422148889729232,13.316556931013078
201,0.2505800464037123,0.8472308927138144,12.282867957360786,9.857702876741069,18.82800077497205
202,0.288,0.8346715135259136,15.451094566077995,7.899641722088194,16.462583235437165
203,0.3385579937304075,0.855814290108379,12.907150112311749,10.598496671636218,14.815100464566735
204,0.3879598662207358,0.8727093745267305,10.65907887073102,14.661954638793505,17.229209286930665
205,0.31266846361185985,0.8582420834566435,11.348222111142578,14.243530699830721,21.230593608045464
206,0.2618510158013544,0.8229687711234276,9.449159202386479,16.74145786919067,17.04972420067319
207,0.22524271844660193,0.7890064077819806,9.175895377030553,12.643782151718117,16.612754060716203
208,0.2023681377825619,0.7697461475470856,15.981347639952999,14.943305512531325,15.22906875514037
209,0.1878121878121878,0.7766844437767596,11.419663523005935,11.35578238054075,15.87089398148379
