time,breath,heart,delta,theta,alpha
6,0.20159151193633953,0.859012318602186,34.279518011794096,24.203472614423582,114.50722648039722
7,0.2059620596205962,0.836618562585847,75.19561361213364,27.749899738492246,54.57088235641866
8,0.21052631578947367,0.8843303922954229,66.21643854018855,22.801703457205498,81.19911959797
9,0.2152974504249292,0.945412160849576,20.784887089474097,9.817093709935849,40.20975682708991
10,0.22028985507246376,0.9094545377992042,26.0768944757637,10.159775005179595,38.807391148911776
11,0.21621621621621623,0.889092210995306,23.921985605957033,10.834681213258524,60.3174874089695
12,0.20725388601036268,0.9013742926434922,9.084174369379303,15.481962287147754,43.07025442192487
13,0.1990049751243781,0.9458259325044405,16.805593911611723,10.682842125631938,72.56341719215631
14,0.19138755980861244,0.9359346163986291,12.181760225332585,17.587652521797118,56.8503409539113
15,0.18433179723502305,0.8958274880756744,8.485791275539086,19.57006331869798,72.15347259549917
16,0.18003913894324855,0.866518830479101,12.672635300645187,23.424337299843373,59.59342705089746
17,0.17726396917148363,0.852293781961017,6.953110955578877,13.828347035400707,56.76524387247086
18,0.174573055028463,0.904627598453985,5.712908752733653,21.48271031765129,79.7527077846034
19,0.17196261682242991,0.9477407728759261,13.419598396126318,15.129449217839097,53.916522347495004
20,0.16942909760589317,0.931167894380205,24.616030122649764,14.265626370579476,67.85078200076687
21,0.16696914700544466,0.9580322967861753,10.820444946850019,11.709543082250663,53.901662514937414
22,0.17120622568093385,1.0081397953849602,20.634116987663283,13.089020833171407,48.445131299687766
23,0.17670682730923695,0.9974687351194206,18.0926265285966,17.710608639071395,68.54223221741215
24,0.1825726141078838,0.9993769470404985,5.952701580364735,12.384717651722305,37.11367001772291
25,0.1888412017167382,0.9956548727498449,17.760916408070123,14.088540501010334,53.236223009641016
26,0.19555555555555557,0.9295412192741146,24.626360020776833,20.67920787747802,76.60791823132558
27,0.19792865362485618,0.8873149769218526,14.37560759683403,15.257250661799738,50.565255710849996
28,0.19260918253079506,0.8655001501952537,10.717870944351882,10.588456009511237,69.73467955505434
29,0.1875681570338059,0.8886080448648331,10.684529306039742,14.69611787193239,57.364612393549145
30,0.18278427205100956,0.9320760469522422,13.480949915313644,13.439716587146764,51.462471990175736
31,0.17823834196891192,0.9330252046392085,18.239425691767924,8.078507602043247,51.02775052563049
32,0.17391304347826086,0.8978204359128173,12.277135189885996,17.762049237963353,75.07569666386875
33,0.16374269005847955,0.8788266790827611,9.988710721506674,14.557489558170833,58.46861473892639
34,0.15469613259668508,0.8899791189409453,7.395396805059042,28.20539603743271,55.10326610284678
35,0.14659685863874347,0.9315254525006899,9.095132998268678,11.969635498532625,58.625278456224805
36,0.13930348258706468,0.9461896386668746,15.66341338381076,15.327695815757325,64.83132750568366
37,0.13270142180094788,0.891117245859045,13.486952168215435,14.963969551999567,51.60797520359697
38,0.12669683257918554,0.872048743335872,14.592138859058863,15.97152958522188,61.04413334606752
39,0.12121212121212122,0.8737123235406334,12.600165857423931,17.41334504291259,73.92701711234962
40,0.12887537993920972,0.9067625067129345,31.336379711560003,21.701862068329465,65.74342055073672
41,0.13757300454250487,0.9720534629404619,38.21907565468863,18.02473967201862,53.0937852789126
42,0.1475295755045233,1.0269168673742162,19.264838688597525,8.759845622583198,38.46270801518322
43,0.15903975993998498,1.0382763536595205,12.502566568326985,11.664698068090056,58.24934894927157
44,0.1724979658258747,1.0121923165401425,9.333092549726235,20.11854251049767,63.34321928699489
45,0.18844444444444444,0.9666999744382216,17.561466917211025,12.715429676815933,71.09922992422946
46,0.19927095990279464,0.9193419447132579,15.807584781583593,16.362790697996555,61.97018889498644
47,0.19735258724428398,0.9042814960629921,8.914233851163043,16.140866071318626,53.01515218193902
48,0.19547079856972585,0.9212027291707023,6.463102326175565,11.32086357738263,80.31200540440759
49,0.19362455726092087,0.9529575317278801,9.930398267236336,16.860188909169683,71.57815862667408
50,0.19181286549707602,0.9234828496042216,15.170959152887995,19.131222781239934,58.95376092050967
51,0.19138755980861244,0.8899382491827097,11.565764236915609,13.201474825702517,75.89702598615891
52,0.1951219512195122,0.8788778301612248,17.65947222708931,17.5440319680068,43.01044238355138
53,0.1990049751243781,0.9165959735987255,14.428584999384029,14.87297269368015,45.886379802748685
54,0.20304568527918782,0.9547295310060859,23.297363983964797,21.447396887428052,66.51296291057433
55,0.20725388601036268,0.9267880730170417,11.897501176178901,21.009205794438525,52.43939206857717
56,0.20843672456575682,0.8983728348205273,15.138860504854087,12.783463598573846,60.269151951341335
57,0.20047732696897375,0.8911205493589489,14.79605911950133,16.531907873571573,57.17906605726375
58,0.19310344827586207,0.9079361112846467,9.270224285888407,9.06975348793449,90.89954073003236
59,0.1862527716186253,0.9502477431616101,10.575141240966849,17.754100600890734,70.54082703506708
60,0.17987152034261242,0.9436229003298308,18.704756236118172,17.13074305372133,88.3876413187514
61,0.17391304347826086,0.8958029233568615,14.748234010373533,10.843069465331391,55.00296276342012
62,0.17823834196891192,0.8888888888888888,9.793640384645563,7.736860469448036,67.85994153057672
63,0.18278427205100956,0.8888888888888888,16.655938901456583,16.573130454725092,83.81153094913064
64,0.1875681570338059,0.9189797449362339,19.494515093824038,20.32669663767901,90.60454357614988
65,0.19260918253079506,0.9422720451937505,14.400508764545538,10.589483224285077,71.69243030762169
66,0.19792865362485618,0.9211566821261408,8.426387155847722,12.634310329190345,56.00722362449613
67,0.2,0.9042183216725992,6.9913648197003155,18.586232319577167,81.22052611449581
68,0.2,0.9070154871351885,16.535296000479487,20.71920739904299,71.00559862181746
69,0.2,0.9310217310913405,16.692619059672385,16.909993063887363,61.599226397492664
70,0.2,0.9441280113472661,10.396378487786366,15.573382103786798,55.5895284498445
71,0.2,0.9156515935257801,9.57378033064149,27.737284876903033,57.2643161436258
72,0.20571428571428574,0.9048934328235149,13.786845147910203,10.636002732784474,50.98368894842351
73,0.21556886227544908,0.9244659481175888,9.689247587979002,12.392462142662175,38.099015300140614
74,0.22641509433962262,0.9476655614302357,13.552735600891163,13.096624232795984,60.989107741480304
75,0.23841059602649006,0.9434383085020964,6.11736398817389,15.36092506463472,55.15831556347648
76,0.2495274102079395,0.9232954545454546,17.482700160240608,16.368165597156366,95.33159786626017
77,0.24581005586592178,0.9599492856981149,15.493322506534145,15.55421243216454,74.81983620875322
78,0.2422018348623853,0.9987945582917175,4.280796739118385,9.656780450740454,81.28450955595545
79,0.23869801084990958,0.9843433233189222,11.049885941140953,14.208284021458258,80.90175151566724
80,0.23529411764705882,0.9434388118990646,12.988087710644173,23.614074670469318,74.29107505708365
81,0.22929936305732487,0.9378225824163757,10.322543679485621,14.059929700170796,37.73902996050124
82,0.2236024844720497,0.9450152673457108,16.53962163952292,14.083642450649982,47.691254888550766
83,0.2181818181818182,0.9623595116660133,12.811639017412597,10.102436237918555,57.71464098320981
84,0.21301775147928992,0.9388839681133736,6.439766353924893,7.461728140941057,75.65992481570527
85,0.21052631578947367,0.9131468123253969,7.8921736385666215,8.122398134689913,46.768166651434306
86,0.21052631578947367,0.9108450733448141,15.210699420075628,8.775483239370095,63.80940967542298
87,0.21052631578947367,0.9247908467212946,18.215139506200416,15.860440757307822,67.26597083793148
88,0.21052631578947367,0.9370176315846679,19.622702764326103,11.780198568832377,60.94556353693815
89,0.21052631578947367,0.9027889730775425,12.338218609332522,21.306797984699475,67.90414454777368
90,0.21638330757341576,0.8794781893326551,13.099786809688835,15.199912060666534,73.31586508627097
91,0.2247191011235955,0.9042756731718131,9.137445014986389,11.325926648962955,76.10235393112751
92,0.2337228714524207,0.9475442993448538,14.537038683226779,15.213565939560647,50.51347662744254
93,0.24347826086956523,0.9373065699885043,12.574481787602359,8.610076772136676,58.21648581030949
94,0.24858757062146894,0.9278439495943377,21.403906081535133,13.476216268428775,66.36890161050626
95,0.2448979591836735,0.9382672746404773,14.611802144868548,15.525012047137395,85.76104065996202
96,0.24131627056672764,0.9644740494032757,5.259956359245863,14.5619628990303,50.86750329059985
97,0.23783783783783785,0.9609818223920339,12.289818099614617,8.033951084844082,58.890081762477564
98,0.23179791976225855,0.9631413224671238,40.60699151710728,15.842340183107444,66.89245136217104
99,0.21879382889200563,0.9734953456974349,262.29998884497144,32.13625598453272,28.970404946572767
100,0.20717131474103587,1.0194312918833621,66.55962382293157,24.790556471322063,55.21725252527531
101,0.19672131147540986,1.0516702183599478,23.320394139645167,11.476742427178829,36.32523280513052
102,0.1872749099639856,1.080282669138092,21.670129985664058,13.689646111167498,80.18120947102472
103,0.18433179723502305,1.056974903911371,38.21587251899925,23.61387183435545,80.39934354004528
104,0.19138755980861244,0.9678037562284373,163.97052817001833,28.180472754686015,63.06354209331499
105,0.1990049751243781,0.9690644800596357,98.1918189965081,24.20372138906237,64.32269585002024
106,0.20725388601036268,1.0260806317539504,22.530921727368987,12.349051765854291,64.65357437654029
107,0.21621621621621623,0.9919792109142674,58.63020793833436,10.780654149383256,103.26474492482254
108,0.22564102564102564,0.9676436822005107,69.90180159526784,19.606978376270373,53.05719657367776
109,0.23529411764705882,0.9601403282018138,12.984703528508497,9.42368615293284,70.56793315757245
110,0.24581005586592178,0.9802749551703542,26.822005849959385,24.212789158656587,72.38030201693915
111,0.2573099415204678,0.9719094464857161,20.664678582420194,17.3004848073159,37.93805271914889
112,0.2608695652173913,0.9232939366090297,19.106960005156466,10.352173702735158,60.83699058546197
113,0.24,0.9081339910424975,12.272836320826976,10.861659862806164,66.99000952609843
114,0.2222222222222222,0.9331497628881763,10.41076432826269,9.005379581842748,66.64205764487906
115,0.20689655172413796,0.9328919650917817,6.88544314093742,8.104666540369413,62.89640556187178
116,0.19354838709677422,0.8883920691886795,6.996749744974702,14.155188225396396,66.56857279527408
117,0.18921892189218922,0.870166003771963,9.560110599885318,7.47482045209281,59.75082114479659
118,0.1875681570338059,0.8449223070367873,15.210011852502824,9.859958433907579,49.533625196851844
119,0.18594594594594593,0.9013817232995349,14.615740654189795,13.217928432478393,40.64193573292187
120,0.18435155412647372,0.9163730917631271,13.532699023960568,16.113676931903697,56.365094723011765
121,0.18278427205100956,0.8985436696280057,10.165429608556916,30.789423858598358,83.00864914586523
122,0.18365061590145576,0.8803738680214852,20.779983973940098,14.877508696431983,60.98601757696903
123,0.18872266973532797,0.8798961179913568,11.695575934837947,9.618959794796357,57.70359567492831
124,0.1940828402366864,0.9015469726462473,7.472727780150844,11.476464152625732,56.221917273476556
125,0.1997563946406821,0.9272742847353086,10.735448169727478,13.032802289228748,88.90440582515477
126,0.20577164366373904,0.9118478750870849,13.449561473367266,20.766188707183666,86.64846052087813
127,0.21112696148359486,0.8806999246769798,16.548266163301438,11.360134315293601,69.51306842367185
128,0.21356421356421357,0.8739482913927589,14.36728269088187,22.56253674883789,85.4823430341445
129,0.21605839416058395,0.8858018067235094,13.351676361756304,13.87724268404046,76.39011949895398
130,0.21861152141802068,0.9000464149496502,6.057264322041963,15.914682295932849,87.50088831043476
131,0.22122571001494767,0.8793725977404191,7.61319147389006,13.101171242262721,47.79528312569782
132,0.22591362126245845,0.8672260054930588,10.716712065533734,12.260105759253252,48.87445625744578
133,0.23208191126279865,0.8797653958944289,11.74256481008937,19.717311029332986,51.06700612571604
134,0.23859649122807017,0.8946122678220405,14.073494637578227,11.590958340664155,56.63779854291222
135,0.24548736462093865,0.8994868699064288,12.2766262212127,21.145269714408645,50.405550011593625
136,0.25,0.889201124046568,13.759992834260679,16.678884415386108,74.81679806611488
137,0.25,0.9149111937216033,8.572196959112837,18.99261689325855,102.27435485311786
138,0.25,0.966768752571195,9.028373226830741,10.848885843414246,82.69780167439562
139,0.25,0.9492590316192034,14.104056795323718,12.159841727435648,43.759030278369885
140,0.2515212981744422,0.9301921237937927,21.233157082861226,15.633064781870937,69.80202307419478
141,0.25567010309278354,0.9378560785344903,19.800185626248012,10.406138442201927,48.05300812044016
142,0.259958071278826,0.9577361768268985,11.816406778882765,17.70594325685598,39.410692528570316
143,0.26439232409381663,0.9397371395642636,19.28797404660617,13.322574118825733,56.74389244853032
144,0.26229508196721313,0.9130897037670164,14.475336357212608,16.678474449592912,108.58177593689479
145,0.25396825396825395,0.9228600115357496,11.513433941175059,11.344340268774829,48.90237383402422
146,0.24615384615384617,0.9528140989198408,11.681470413813276,10.332219905315435,62.93964455346537
147,0.23880597014925373,0.9458411784250755,10.660286489472405,16.79100228155521,86.1181795435346
148,0.23529411764705882,0.9152933767187992,20.163585043048172,13.110860041002788,51.906317189366035
149,0.23529411764705882,0.9273570324574963,11.781800162668596,9.728041390621733,34.07699227128027
150,0.23529411764705882,0.9574321531891445,8.60269615511989,14.193370870072815,55.658694684175714
151,0.23529411764705882,0.958509585095851,16.635691656566163,16.634387429460197,58.829529430146835
152,0.23529411764705882,0.9174311926605504,10.004891251871001,10.765027904597122,51.22511798501552
153,0.23529411764705882,0.9174311926605504,14.016903239200783,8.150640791673604,48.69340405892653
154,0.23529411764705882,0.9550712940543447,15.435158079481873,17.566918104423515,54.027697720772174
155,0.23529411764705882,0.9396989400552236,20.998932920821193,12.733394609308949,54.3638678788594
156,0.23529411764705882,0.915766374071573,6.119077442166147,11.94298823284106,51.55437971049857
157,0.23529411764705882,0.9199864956110739,10.85687568560208,17.067797653544467,70.63220211465092
158,0.23529411764705882,0.941145281018028,12.779158132159385,11.490356440162067,73.80484569908636
159,0.23529411764705882,0.938408670367433,10.798885366177434,13.824310216140237,55.60370923019375
160,0.23529411764705882,0.922070196311719,11.250844636454557,17.403605458074264,72.24317954834311
161,0.24361493123772104,0.92378752886836,20.066946441675274,15.832403252359402,63.96754836534248
162,0.25567010309278354,0.9455200360198106,10.2629723268815,10.105813201080178,69.50507114443363
163,0.26898047722342733,0.9634888438133873,7.687700813629658,16.10000437450973,65.48209920583565
164,0.2837528604118993,0.9414780763790666,14.628750593072901,13.143078237813652,53.67588228540583
165,0.2597402597402597,0.9422451193058564,14.46983317203119,10.761528725417127,93.27650529752373
166,0.23529411764705882,0.991263861423315,13.78388117943846,9.698157166089123,50.36199678531935
167,0.2150537634408602,1.0407822300128735,16.926985934080726,19.31470680987136,51.472529378197635
168,0.19801980198019803,1.075206154025467,27.795758944750993,14.906022356558815,63.237286674260666
169,0.19801980198019803,1.1059228311624478,18.455868836879784,17.303953892314848,65.71170566591964
170,0.2150537634408602,1.1185402736986811,12.222660158551053,11.980270841601932,65.4559180571258
171,0.23529411764705882,1.0956025814197803,7.855730600074059,13.243603821068168,39.80889729957012
172,0.25974025974025977,1.0330024148108394,9.721646509201932,11.29140646129509,81.28089298480678
173,0.2831858407079646,0.9444120418143481,9.750188259976193,10.065825639318518,57.41052462568057
174,0.2644628099173554,0.9130897037670164,19.13153018104162,21.67778631970477,59.6313597553321
175,0.24806201550387597,0.9493814292835467,18.786159340825105,10.84941806159105,91.20602053199165
176,0.23357664233576642,0.9699887808526545,12.852285052344573,10.383967790478795,59.19269021584077
177,0.2222222222222222,0.9345794392523362,18.398112538201673,9.916540616308943,80.77623483276044
178,0.2222222222222222,0.9305156970171322,20.15897573372785,10.979070353700981,68.45379064805405
179,0.2222222222222222,0.9508136770890474,6.198210673259028,12.525609297986577,62.70522402250734
180,0.2222222222222222,0.9739651620153583,13.223674530803148,10.357418017771545,69.11920557477352
181,0.2222222222222222,0.9406038281918043,14.85059559743267,6.904891544954442,56.04000971421352
182,0.224,0.9226477845724708,13.135001406301546,9.94191470621004,72.57814576207271
183,0.22690437601296595,0.9387621438707562,11.004854545801313,16.83212212621534,49.81853905299813
184,0.2298850574712644,0.9645194626248701,21.151444098651986,18.502352577147988,78.52236428115883
185,0.2329450915141431,0.9537532592287638,12.189295620604478,19.182063458094387,50.7799522452711
186,0.23307086614173228,0.9229707582161653,15.07494184041719,15.047452181220388,76.39063798193366
187,0.22458270106221548,0.9174311926605504,16.59120342491964,17.406959625728515,89.31854804414503
188,0.21669106881405564,0.9474246063517466,9.436756996335669,8.374119435666467,55.88281742760731
189,0.20933521923620932,0.958576617167027,15.452474895210848,19.73637048721824,56.156723142716125
190,0.2024623803009576,0.9283503927636287,11.918312516042509,11.064057292390281,59.27311753782693
191,0.20413793103448277,0.8988991011008991,13.513665230927627,11.85108170478029,42.7840770382692
192,0.21112696148359486,0.9050704515067365,15.344257266207208,12.016208146801455,38.809383763220204
193,0.21861152141802068,0.9330107034639112,18.91877656495014,11.96895326867832,39.952804238399835
194,0.22664624808575803,0.9291298218633856,11.43290257414928,12.32095357271095,56.37961842805102
195,0.23529411764705882,0.8982276044590584,10.359638676688881,9.43820422315486,50.14693567467644
196,0.23217247097844113,0.8867939602141088,13.577859238816668,12.290876370626878,61.68719503636303
197,0.2291325695581015,0.9160683337459771,9.08479196402342,16.85979473206607,65.74558564320492
198,0.22617124394184165,0.9484974736282241,13.327310433744554,17.37031784232572,63.13388668194584
199,0.22328548644338117,0.9130969026736164,9.811988621430261,14.976924264777834,65.56700268977637
200,0.2222222222222222,0.9141072358146799,15.636931733739438,13.77512486606014,40.492889316031295
201,0.2222222222222222,0.9286328460877041,12.479862282912745,10.357973056153842,55.00586012822757
202,0.2222222222222222,0.9560229445506694,15.083914813670862,26.715255871327386,57.330261063525704
203,0.2222222222222222,0.9529441197207122,15.300739123592743,16.545763821618035,36.051367767574504
204,0.2222222222222222,0.9324465310380803,13.578783671991314,5.802359930597101,48.67126802336351
205,0.2222222222222222,0.9259259259259258,11.180382576792923,10.01255386086375,54.189419051565956
206,0.2222222222222222,0.9416279900035698,10.691775962362799,13.478798981888968,44.673513546819414
207,0.2222222222222222,0.9579503049057984,8.92577254042994,8.542368388643842,44.23907304494505
208,0.2222222222222222,0.9237875288683608,15.769936353600038,11.961436175189315,62.486094521932245
209,0.2222222222222222,0.9029666003814784,19.056822617181172,18.450033236858033,47.43195456960937
210,0.2222222222222222,0.8956753433080547,17.57522199537282,21.594141462711324,86.3251556400899
211,0.2222222222222222,0.937969521356514,21.084170954756818,19.61951196319176,45.95677902341771
