time,breath,heart,delta,theta,alpha
41,0.013260394322252214,0.7656377907256712,81.71462780696868,35.50482622943997,20.590355940510406
42,0.01358727087255098,0.9713690564754367,90.93220486243204,34.55165407297709,17.43104444674687
43,0.01393067011698744,1.0590982376160558,78.21128669399323,35.83601731042793,15.443382911553515
44,0.014291877302242233,1.130434782608695,78.82598056823126,37.175807107359944,19.479155334865656
45,0.01467231452354725,1.2020733007388886,87.66771541545391,32.232499861852645,48.02631894693644
46,0.015073559436724886,1.228574629373764,104.81163451290595,32.29739633842906,27.611088624398754
47,0.015497367126869699,1.1433051318067495,109.58650065613114,28.17518903349571,25.34225106934488
48,0.015945695772909593,0.8625287356321871,95.15424882097511,39.07562496384283,37.32635459675117
49,0.016420736899632693,0.7225025227043383,45.617203808644874,37.290362212875785,46.09943421582603
50,0.01692495120321731,0.8061217533574196,52.766301320257156,28.777038513438367,63.78924747459172
51,0.017461111186193288,0.8812132051568664,55.29563713702049,26.50931276043871,48.1256693427556
52,0.018032352161230444,1.0410318911232974,74.03550479796779,34.4467529504328,40.122576367227815
53,0.018642233605079,1.0137981883294716,57.953130877766306,30.37741185597851,16.86100103098373
54,0.019294813398844105,0.941229964760714,77.67240342495789,29.715857676941823,27.725007012040486
55,0.019994738226782424,0.8396183552930487,72.52215888270243,30.254203268341588,24.426346793603383
56,0.02074735439114865,0.8326279604069857,131.8862431055615,36.59713836732063,72.49592069713111
57,0.0215588446328155,0.8126771114947395,73.51204670817599,39.1020526776575,100.65322068599599
58,0.02243639836763046,0.7670095650604586,66.75955223329919,23.972143849472467,79.21019107887479
59,0.02338842526384388,0.8109139477199008,46.47274277278926,23.04950202598018,67.76496008134718
60,0.024424825604476626,0.8079288237603035,57.74635481945146,25.89715534237338,76.24579652126978
61,0.025557335865329458,0.8818140174072383,49.677654213615206,22.271427566837414,55.84989677144542
62,0.026799975108382255,0.888695789556837,45.756541653197374,22.0888259995455,28.196408317468723
63,0.02816962825684073,0.8542787107159843,58.067582386533175,23.774499978580963,37.8312492162028
64,0.029686817858045545,0.8702938431947593,49.473913928402595,30.7344539645916,85.30995174817112
65,0.03137673944192146,0.8980833844008209,40.94384663595248,15.234292699580552,60.677782421971166
66,0.03327067185126053,0.9941225089539887,50.74376845716435,25.58454313468772,63.595596678736136
67,0.03540793115733509,0.8564759870242883,35.41786918361435,28.285328959257082,63.67729096854415
68,0.037838629374725444,0.8672897196261683,59.67410635198186,24.8982839408386,50.92769183923369
69,0.040627653218452256,0.818305546104117,48.11173371877469,27.806745687776566,59.75982761876965
70,0.04386054248565706,0.7846033137951723,46.68485321370137,27.446144694065083,41.09145439523467
71,0.04765241765942537,0.7698218032447767,36.43533889267421,20.92460469186865,18.132755356891586
72,0.05216197666437887,0.7657740278796772,55.91288554637917,19.668933839564986,24.62756006656415
73,0.05761426978818284,0.8236880178876761,45.110516159049524,20.780736562355695,19.70493379349119
74,0.06433942532742395,0.9152245255712511,37.09370007679039,21.309071774652175,19.55880419501996
75,0.07284208152449681,0.805523590333716,44.85390611216862,22.404558223188786,25.543135152270402
76,0.08393425583057239,0.7175674978059987,47.86347327704174,14.807526933646313,29.28419953518838
77,0.09901141849950197,0.7299270072992708,35.30809819832649,19.07901155848315,23.88173700979022
78,0.12069126576366179,0.8416220351951041,42.69430375491281,20.338890100149314,30.04231526485234
79,0.15452697045807912,0.8120552532440352,37.49666368108955,17.961166978737268,17.89812495233258
80,0.2147249459863719,0.755993235849995,46.74151877892452,20.18239451045544,30.97315547149524
81,0.2603550295857988,0.744409643819652,28.928635118051922,15.035738171161722,15.044365781849983
82,0.24858757062146894,0.8510283953701391,43.95327996069225,20.865445689627823,20.043883007052273
83,0.23783783783783782,0.7559973807964767,39.5981265284872,17.5479458360591,14.8792263560729
84,0.22797927461139894,0.725888257999921,41.8546107504469,19.120716839725148,17.145002602017048
85,0.2185792349726776,0.7389679640592848,30.46303599911542,23.285698590900587,14.076065560951983
86,0.20942408376963348,0.7968190854870775,39.69850168882072,20.16870551604555,17.940412451631023
87,0.20100502512562815,0.7993617869964099,36.083801384237006,19.391277139229825,22.589539175310197
88,0.1932367149758454,0.7461430575035072,33.59038381366438,20.78558522149873,17.25309752699437
89,0.18604651162790697,0.7201403619032652,34.11427243813976,13.23830579710823,18.773326911233674
90,0.19047619047619047,0.7453517896633634,40.98448941559368,15.843994403572962,14.572200295144155
91,0.2181818181818182,0.7255428282881975,33.64792150406877,17.95217515328505,18.58440955323855
92,0.2553191489361702,0.7651422230009923,37.985544731407636,18.310641781188615,19.295432979693622
93,0.3076923076923077,0.7908773220526033,26.99411607584499,16.374476677082562,19.086262020597772
94,0.36363636363636365,0.745208339374256,36.39186190171343,18.018981321212802,24.886069249262523
95,0.36363636363636365,0.8059710853953013,31.704275401138812,18.689952998451403,16.512256536861432
96,0.36363636363636365,0.7871064467766123,34.673160215844874,12.927787513017197,17.0239707743708
97,0.3373493975903614,0.8226098235314178,28.95720423265585,16.180663907207023,17.487044953039454
98,0.2947368421052632,0.8541633915002902,33.69959309013132,21.159614626530338,21.678697464570906
99,0.26168224299065423,0.7457820523270035,22.47231669257953,20.995510416192282,15.122277269411763
100,0.23529411764705882,0.7165792152870234,35.3618574683034,11.632537868777183,12.625554231352371
101,0.21101992966002345,0.763491237202846,30.6778524996898,18.897601896080104,13.54788068244899
102,0.19128586609989373,0.8163878593609136,35.17068823484233,18.303574374582016,9.5527974448318
103,0.1749271137026239,0.8058902689910133,30.953111595345916,16.434151619679298,13.760380568979517
104,0.1611459265890779,0.7271559965945095,37.057768595943045,21.049926820716777,10.684080872843138
105,0.14937759336099585,0.7421784235200853,30.61059337256856,13.117461649317192,12.696216590042418
106,0.14925373134328357,0.7629244952736609,25.703236053051132,17.453566829494385,14.404504548383933
107,0.1694915254237288,0.7773122001578915,24.3909125596226,14.158597066267518,12.689800749613461
108,0.19607843137254904,0.7868691215343946,37.504304736322936,13.060408810055469,11.090219018564872
109,0.23255813953488372,0.8116565617054563,31.88570963880172,15.167759509400875,8.459741594632495
110,0.2857142857142857,0.7794149049754439,31.093978244891524,14.542813947365465,14.46539348950814
111,0.3020257826887661,0.7861063220663356,22.624128734967144,18.015278385644294,10.687258307739476
112,0.24153166421207656,0.8638117993015993,30.848748121843446,15.196729484891524,10.301978956698422
113,0.20122699386503068,0.83297665689922,28.717661078000898,15.364331238646164,10.470491057610289
114,0.17245005257623555,0.7672944530373346,28.21760749422606,15.67868531455523,11.450672422952817
115,0.15087396504139836,0.759902524837421,24.04319529596786,15.323758203846022,11.110372306102558
116,0.14045801526717558,0.7730875465353666,28.025066458680275,12.37723745028353,9.18041730962132
117,0.15156507413509063,0.7870728312973558,27.302747950281013,13.596411716605983,16.381733419457163
118,0.16457960644007155,0.784646215507939,33.6755466653503,14.198809274139798,9.348494997729617
119,0.18003913894324852,0.8653061224489771,32.92173716234253,15.548314544395348,12.971524050372745
120,0.19870410367170627,0.8261049153242482,29.29556543182425,14.226175964646073,10.66290195941496
121,0.2216867469879518,0.7853524792044235,24.974786860056525,12.335937526193433,14.920847771363398
122,0.23225806451612904,0.816067072123147,37.757634864195474,12.189754159230198,14.505696841649883
123,0.22641509433962262,0.8851655733818065,19.915192894510113,13.547265497625762,13.191056531087588
124,0.22085889570552147,0.8993816750983694,27.63493169767816,11.384658037705393,9.931045461423295
125,0.21556886227544908,0.7306360334487759,24.85377601828071,15.912898206724327,11.757840503561878
126,0.21052631578947367,0.7057375711074539,28.799179012260797,13.58973893779933,9.533208296814077
127,0.2214983713355049,0.7666747957566138,19.77055918249863,10.767405587515832,13.886712488847168
128,0.23367697594501718,0.8354371512091398,33.05828989492421,12.62324098261246,11.492647035556406
129,0.24727272727272728,0.7606490872210977,31.19845885375565,18.191624951666583,8.468546754209356
130,0.2625482625482626,0.7605552342394435,29.748990686225515,12.70448117625634,11.805772625055257
131,0.2632696390658174,0.8257463476603815,16.49766162799256,13.007988935855819,10.906997040240004
132,0.2588726513569937,0.9198691741619007,32.23300953190926,11.580481661531469,15.533953684800313
133,0.2546201232032854,0.8434547908232155,19.499110866536824,12.840421115955998,9.824909144969581
134,0.2505050505050505,0.7706535141800276,22.978564457486637,7.75298613528081,12.249423417818303
135,0.25357873210633947,0.824175824175821,23.854414265190766,7.661232662206959,16.211881951670357
136,0.2577962577962578,0.8533944720417789,25.78515567348221,9.013248127535528,16.682663017670823
137,0.26215644820295986,0.7893792608539698,18.833536993945426,10.871778122664187,14.526305565965972
138,0.26666666666666666,0.6968455768923842,33.78712104501373,15.702566197004654,9.78448576170692
139,0.26215644820295986,0.8188011750734369,22.916094727944373,12.368366206610503,17.223851976072154
140,0.2577962577962578,0.8453933228256201,21.73145013618945,14.100090929563262,14.075910400425675
141,0.25357873210633947,0.7930673090459746,15.206249881387008,8.479229211078497,14.438923186045104
142,0.24790619765494135,0.7599840314639289,26.68055257215814,11.258323708017581,16.85344128645625
143,0.23233908948194662,0.8188953852205451,19.012409634664515,9.86219645400542,12.41538696797657
144,0.21861152141802068,0.9247107755052585,22.19670747557497,9.627582439043788,13.849952272708705
145,0.20641562064156205,0.8315783789621477,16.0774784926588,11.239591328978806,15.684606717177473
146,0.1955085865257596,0.9633017388038239,23.14862458488021,16.550632118397562,11.136401304111617
147,0.1955085865257596,0.8137840960466207,35.21234052243169,13.588157806222299,10.318033615220955
148,0.20641562064156205,0.7338850483342066,20.887031476300844,12.17674592360356,10.481114903300684
149,0.21861152141802068,0.9120773735436349,14.119550330749435,12.412540689605457,11.324916683517113
150,0.23233908948194662,0.8721188929429574,13.612759351785469,14.796861115578436,10.384987422990484
151,0.24790619765494135,0.7829352081169634,26.625321701980294,12.170536595865883,12.970201998574648
152,0.2575107296137339,0.8248423095584633,21.3648863324342,18.962456188031208,12.487880666387191
153,0.26666666666666666,0.8730128473943037,24.84527991274237,9.227548401082622,9.667263103334413
154,0.2764976958525346,0.8410908274468522,21.418073806378743,10.019119659668215,9.57728521790967
155,0.2857142857142857,0.7788161993769447,16.12557380482786,11.584781526233707,10.727501004212499
156,0.2857142857142857,0.8511296812132433,20.669467071025235,16.11113346485312,10.486397931780864
157,0.2857142857142857,0.8517361615574605,23.834665080418777,11.152342283175187,15.131182363655673
158,0.2857142857142857,0.7607365581093658,23.633814089792267,11.457770449538529,9.308533991826364
159,0.2822384428223844,0.7755164970706093,22.717846518828672,13.871829897311295,12.534157822586137
160,0.27684964200477324,0.8917721767080885,50.32006533204513,11.83510800471162,8.761994848555918
161,0.2716627634660422,0.8439436070052284,26.601189906242848,11.537724679077458,7.212359157111474
162,0.26666666666666666,0.7198635172059915,17.872508299630187,11.198342516712351,6.685035410687502
163,0.26666666666666666,0.7791589841194262,28.40893657366769,12.603519964004073,6.9187881208073625
164,0.26666666666666666,0.8059596056898852,21.345341977881173,15.372223456812339,40.282310116428405
165,0.26666666666666666,0.7545570156846126,26.969716164663815,7.945249591124875,14.985154755396882
166,0.2706766917293233,0.7419758232596921,26.093002682579446,6.196272404408339,7.444908520862532
167,0.288,0.8573928258967558,28.694018822397332,7.221619414490096,9.05742259996531
168,0.3076923076923077,0.8781622564699059,22.878904763181826,11.750613309073678,11.81586951514163
169,0.3302752293577982,0.8266852642501165,24.342698859233153,10.4461989265945,7.865068879950494
170,0.31304347826086953,0.8231605863705614,24.621470017375557,8.902453826024313,9.53977690336157
171,0.29268292682926833,0.8870272268079337,18.314289896711095,9.956744137835642,10.928396500919614
172,0.2748091603053435,0.7116734209745992,10.1780211953755,10.531874244321592,12.394032789033453
173,0.26666666666666666,0.8026724817890747,17.393498451405076,9.932908161995153,17.193169093659222
174,0.26666666666666666,0.9329647546648211,44.78838933923647,14.022263547088631,32.25760584820693
175,0.26666666666666666,0.9428729894620091,45.12179391272373,18.69645166903858,55.441100357971465
176,0.26666666666666666,0.8260479340491327,28.597699605672798,14.851405518311426,33.87495742630416
177,0.2962962962962963,0.7704310512970511,20.40149044198103,15.129621642314078,36.059230572464074
178,0.34782608695652173,0.9905894006934121,42.96585974322008,16.39803746573945,46.00333030241518
179,0.42105263157894735,1.0107538000206797,26.563457645771773,12.715201239720445,37.11871149343744
180,0.4166666666666667,1.039270570628827,19.736215627861796,16.028457122505824,47.86509430962584
181,0.3846153846153846,1.0960209673576375,16.9482908324891,17.81617924626983,34.07110290734972
182,0.36363636363636365,1.0862734536313834,23.61138788617913,7.939468750374553,42.02383640285046
183,0.36363636363636365,1.1361429403767715,20.28935100896366,14.530838915226576,31.85744815287769
184,0.36363636363636365,1.1433424800731744,28.824971925434006,20.510672736536876,26.739066225548804
185,0.36363636363636365,1.1324991979467438,32.383433224184586,17.13033182840886,43.60326701882801
186,0.36363636363636365,1.1695115768125721,21.257377426500906,19.201855368422752,34.7137896503418
187,0.36363636363636365,1.1523214405697784,26.22764688009683,23.39689439766107,42.10191845515685
188,0.37333333333333335,1.1405445180279603,28.488659536770246,22.683615313325266,34.730584392143626
189,0.3870967741935484,1.2035207472606437,16.989343418419537,20.97188192207192,22.904660592445197
190,0.4,1.1539992041384801,19.27579473297171,11.470664847427512,31.050804002506656
191,0.4,1.1566281123962538,29.80590559465928,26.065765370475482,47.12673511996923
192,0.4,1.139872544510872,24.50138193721685,10.943303955977003,23.922700705418556
193,0.4,1.1130456410894163,60.30637634446531,20.786206046254783,30.8938819477171
194,0.4,1.175285426460713,48.16078601543002,11.267657493972033,35.50914635708457
195,0.3948497854077253,1.146249104492892,24.525630005345114,10.109874665316159,12.606741654341572
196,0.357976653696498,1.2418075198344234,25.430400505801853,15.715582916232734,17.883017125387795
197,0.3274021352313167,1.20798511003248,21.249162584522946,15.714902406139858,20.877773731479646
198,0.296943231441048,1.2279125486672675,22.976961061352362,13.51667532616793,23.82925127687362
199,0.26053639846743293,1.2915207023171427,38.45744055437065,11.781699970322284,18.267441317492736
200,0.23208191126279865,1.306801306801304,39.86941640226802,9.973253968848065,14.464482517336918
201,0.20923076923076925,1.1967604309783724,20.684567446093553,12.285878802941097,9.389931764179298
202,0.19047619047619047,1.0085317042342454,26.74899100027657,9.680536684838396,20.644706219060097
203,0.19843342036553524,0.944811373558714,35.318265234814724,6.505775698330212,32.810601563169875
204,0.2070844686648501,1.0202259800545903,29.110470564498854,11.67481442995977,24.13238623190893
205,0.21652421652421652,1.0501814957466244,56.838246808581204,9.206262326481545,13.624675669157968
206,0.22686567164179106,1.0223658966070053,18.9765227119291,9.568102019609741,21.11789923858635
207,0.24137931034482757,0.9132028553666688,21.545402775008384,8.787330311827471,14.93460794383247
208,0.2692307692307692,0.9016476296371189,18.516379897298364,10.752122293818394,9.440755002845178
209,0.30434782608695654,0.9304741090169438,27.690446486432155,8.98429061766507,9.592035832920612
210,0.35,0.9847545408126075,43.105706149229036,16.069244509261136,15.092670514748106
211,0.3552123552123552,1.100229718292833,51.04491500467115,15.104776210934006,36.509003377435626
212,0.34456928838951306,1.1627906976744187,33.94158153201336,8.366746849351898,34.38693197121833
213,0.33454545454545453,1.1853298005856923,76.84228487527112,22.486417928962954,49.89114547207655
214,0.31901840490797545,1.1629497879326864,67.45804923152704,10.396316170846763,42.214954773271565
215,0.304093567251462,1.1075414271220911,27.136431865557196,6.48256903455874,39.47062209584607
216,0.29050279329608936,0.9208497515847177,15.601957946537699,6.791226633489902,38.33268445666279
217,0.2611683848797251,0.9547418024739781,9.646851025204533,11.458620499251602,33.15705501194048
218,0.22960725075528698,1.1335217122998462,17.179697089532972,10.144011860574533,24.51774738494688
219,0.20485175202156333,1.1458535637987988,21.18766178967088,12.4673412875079,23.77878603547973
220,0.18491484184914841,1.122597830912662,37.63478079253836,10.748018573524032,65.67259103202078
221,0.16851441241685144,1.1968132614054483,13.92285828503326,11.911269240567044,51.91609960432461
222,0.16568047337278108,1.0241983940569317,22.827470414994295,7.526910481832647,48.65917866270816
223,0.16456759026028547,0.9462663862914409,17.390037687507856,9.360457363723793,30.24976921192417
224,0.1634695579649708,0.9586936079447709,19.327777492621276,9.73587608528423,31.78653897011377
225,0.1623860811930406,0.8496696729131896,16.388608950312417,11.983356832683908,13.365143468457486
226,0.16131687242798354,0.7644381600459536,13.703661061297428,9.743458470164565,11.882652879443334
227,0.16026165167620607,0.7896444226417474,14.589420924431836,6.11103260600113,28.90947922131347
228,0.1592505854800937,0.8127962471291501,12.554070959053233,17.04671229161213,33.4254687965371
229,0.1582622187742436,0.830658863507645,15.366561568409725,14.64005638565597,47.70273154928036
230,0.15728604471858135,0.869188945120687,9.483876096575404,12.976622942477533,18.26543616324657
231,0.15632183908045977,0.8353631342413173,13.961567749660441,13.27548141924565,18.59411624425175
232,0.15536938309215537,0.747494660752425,17.043978797700483,14.059292574292424,27.421259802891218
233,0.15442846328538987,0.7123845310787555,11.039461383318653,6.740733349938873,18.80344576879645
234,0.15384615384615385,0.7278039535679492,11.677815206349264,13.485650866310834,37.19284644237469
235,0.15384615384615385,0.7653551218214837,10.634574004208153,8.382026015973949,36.09966379413825
236,0.15384615384615385,0.8280469818931323,16.126949305359705,11.023128108727684,34.047842373003746
237,0.15384615384615385,0.9026840051053534,9.934455656082472,7.750649269697231,34.146214637222364
238,0.15384615384615385,0.7617739342189542,22.302731918200557,9.079096515726519,40.265273570619804
239,0.15384615384615385,0.7100757075351879,25.06355587952646,14.387579084832687,18.40052410135338
240,0.15384615384615385,0.6971624266144809,16.758493783318578,7.3127999923880385,25.766292658910707
241,0.15552099533437014,0.7150817236255566,11.570100686528113,10.014549196507742,41.30647192470838
242,0.15748031496062992,0.7572777340676616,12.132974531135291,11.268111973148388,41.07639700145484
243,0.1594896331738437,0.8435326230518578,14.56293624888829,10.71190164203418,44.253387351099974
244,0.16155088852988692,0.8403942590351061,12.64158020560489,11.213569587723784,26.751133451921465
245,0.1636661211129296,0.740879677389103,14.90663437170245,14.760299623790088,30.50982435150122
