time,breath,heart,delta,theta,alpha
64,0.008069079845276059,0.9093766369827129,35.82528323418702,16.73773345692619,16.75791055318418
65,0.008153325574668182,0.9598870721091625,35.71509966295575,22.60813034493544,33.22551439378419
66,0.00823934900985051,1.008201038296593,28.84618922020472,46.2683448287931,32.28641289266632
67,0.008327207019038524,0.9828190485527306,34.25346422433816,20.183232030944446,15.125484024964594
68,0.008416958922184798,0.9849011733560724,34.41699094376647,24.66896195195912,17.73923882445494
69,0.008508666624544555,0.8265776506119835,30.228099242728618,21.485284764030922,17.117331009454805
70,0.008602394759069067,0.8827024274316733,35.20199869928939,17.98262346454808,16.54010014812075
71,0.008698210838315188,0.9188074254640901,32.86947538053631,25.97977424373575,19.888647908264492
72,0.008796185416621307,0.9388435553215753,29.164813403685475,23.082253728760598,19.53515140118857
73,0.008896392263368445,0.8742957062366458,56.632726622177735,11.523450096508709,20.807175410250608
74,0.008998908548220635,0.8512950552436148,24.71625418556424,14.492253945946393,10.864220513114875
75,0.009103815039322172,0.8837017063905985,64.98592180027885,25.27252413939293,17.522029799061542
76,0.009211196315521473,0.9204790723263786,41.36427704994494,28.4542335504936,16.37519467385821
77,0.009321140993793596,0.9133460359539396,27.26190193742335,18.601944398229236,15.235602420292311
78,0.009433741973146526,0.8993357179356151,36.26835581266589,24.787028826706955,17.51506441895781
79,0.00954909669642224,0.9225255519667254,20.03669101550254,10.554636792534511,16.301113072075527
80,0.00966730743154318,0.9975599253624216,30.6732565111882,13.875749615487928,17.317488941370662
81,0.009788481573910305,0.9633547412164718,40.74151319834858,14.585979434057663,13.363527569982452
82,0.009912731971832137,0.9371946344496762,39.49758404996543,17.36476386163157,20.504409029516218
83,0.010040177277057532,1.0086597126549883,29.115048318056342,16.19654159614031,17.124734879113575
84,0.010170942322700837,1.049369290996085,63.84381044578127,37.95965907807086,22.1091521834002
85,0.010305158531089778,1.162790697674415,63.52020999919965,26.893334327533548,17.359851341123782
86,0.010442964354337017,0.9771077610273604,43.48783838650279,26.496892037905017,16.433514798189425
87,0.010584505750740129,0.9273462557523325,46.12424350579068,12.52828222622897,17.95030233057473
88,0.010729936700455934,1.0919490423780231,57.84748251440269,22.81404059690456,17.468713001521234
89,0.010879419764279238,1.0155966630395385,43.09529194065532,18.757776775513985,17.804376898252148
90,0.011033126689788895,0.8906575705893485,46.92981228770773,10.685629291257804,17.975154144662007
91,0.01119123906961283,1.00491768227496,30.29395694944307,16.06669449901121,13.452084699445503
92,0.011353949057116359,0.8546005671262357,41.92593260749121,17.07052870587363,17.632414766092648
93,0.011521460145444175,0.9130759751934223,55.83400211618341,32.021073014956556,12.61990290915775
94,0.011693988016556835,0.9853394877191303,44.99597770120877,21.309373197757715,19.550823235750997
95,0.01187176146771018,0.9617634670285957,17.94224517869964,24.05330062075798,18.291125305229194
96,0.012055023423746009,0.9013438216978044,17.927726563001034,15.867446294619858,28.03225408112502
97,0.012244032044611919,0.8791590988136183,24.332970746423353,22.439591605141704,14.605572773377553
98,0.012439061938728383,0.9156850720071048,52.32750864503974,26.2695961746092,25.95922391006397
99,0.01264040549419605,0.9953483719301743,19.54790266283027,10.01870318589841,23.49579895129871
100,0.012848374341414804,0.9647169938608949,25.9463700636857,11.877681991216372,14.856474916552047
101,0.01306330096250229,0.8677334570191704,52.178897805979304,11.806510275325591,25.491915357307118
102,0.013285540464993915,0.9732421285584928,37.45533566908603,9.251572167200889,15.525649743892048
103,0.01351547253972679,1.1074131888198415,32.283585432051176,20.512184657475668,20.16177566953387
104,0.013753503625614198,1.005692115271715,87.9192558250363,23.640348954737114,29.38907990133247
105,0.014000069307273797,1.0332064016190452,41.29979399675571,18.043077733072842,45.46735018463989
106,0.014255636975264352,0.9700176366843045,41.55406781232984,16.803705523662575,50.13082661302556
107,0.014520708783111888,0.9040638988852803,51.13967169380592,20.038591007159702,26.405772778064765
108,0.014795824940487088,1.134074218496133,24.041799371280295,15.874781040394428,29.321570352819844
109,0.015081567387977052,1.1280439905734494,46.30472312124442,22.274732838934266,20.659900555258822
110,0.015378563906053723,1.0342253971638775,35.70758010097674,14.39253815074843,32.015832174895266
111,0.015687492719294836,1.0193467859371743,24.57917187740566,24.14679637468622,29.939980481293965
112,0.01600908766692644,1.0528649008090434,31.28893742177398,19.467446039388495,33.425212432376114
113,0.016344144022655247,1.0543299858124462,29.27988289253757,15.87163227448011,22.30248285655159
114,0.016693525060947893,0.9165941736861105,36.46114972577471,13.36050987828537,26.33163827764396
115,0.01705816948389185,0.9173145774632958,29.745738234959816,14.93337308228687,26.539687009611715
116,0.01743909984316321,1.032244333297861,46.04430048748565,9.651354068776222,33.37831037294793
117,0.01783743211620822,0.9379399978338555,40.27414923567807,21.363315144192292,36.70100078098677
118,0.018254386625498907,0.9066202386513236,18.727280891168558,25.751755410248023,28.184684259354
119,0.0186913005258856,0.975928597187161,32.85135858439676,25.884955912227625,28.262747786108683
120,0.019149642129212684,0.8660286113190737,19.812020887048234,33.93442005212645,36.54369680385003
121,0.019631027389494484,1.1052363358389587,61.567837693951354,26.367208107832838,18.690273615549305
122,0.020137238938641232,1.1949950794320259,30.705987022930977,18.825741767829587,21.138425543029207
123,0.020670248145305704,1.0916121356335515,25.77445604586722,13.837661956556921,29.166918152797187
124,0.021232240772208887,0.9381644418140764,39.1156129189725,16.036277426386295,24.838222646394787
125,0.021825646935945686,0.8421426667851115,50.13266661492307,17.682322516382975,24.72693865303199
126,0.022453176235202574,0.8585529378899341,37.23959482945296,16.442998696258076,24.56199665296102
127,0.023117859118393192,0.8853379399697691,27.353675276116135,13.131386949894813,21.20278480219222
128,0.02382309582309582,0.8888275753335567,24.818091858626023,18.957582885649916,22.641942949755222
129,0.02457271455507572,0.9458577951728643,38.141041792248295,24.800454428565914,17.580483356796574
130,0.02537104100814301,0.9523809523809523,39.85540077373497,18.144455802640415,21.20272718614948
131,0.026222981890564483,0.8932941752325013,19.061834727001322,18.026640109481537,24.05657281721111
132,0.027134125864732347,0.8771929824561404,22.127654681717786,10.419204410334917,14.581082370936816
133,0.028110866287834855,0.8855799373040756,14.337798349683654,12.073675613604248,18.08830683943984
134,0.0291605514520126,0.8980464966096223,18.23591125560886,12.926723603299342,13.769253509212557
135,0.03029166979080752,0.911917530936333,21.410331256703817,10.553576667857888,15.945519876052822
136,0.031514079929275324,0.9226853324848868,18.889190683017645,17.856862202643928,14.550976225732851
137,0.03283929877800958,0.9213706197134474,12.16050753686006,10.619239851257344,21.329407499708232
138,0.034280865507000415,0.9740901898734184,11.229037277857675,15.96006948773147,32.584297543219115
139,0.03585480578646865,1.0727772056299345,11.168439038077986,20.74958019549264,17.265576274876615
140,0.037747336377473364,1.0140086983684513,11.465150835333409,6.970232763293236,26.853756379022727
141,0.040038747174685176,0.8625245357088936,20.522658056524314,10.735776230327492,18.682664697781128
142,0.04262633207287728,0.8928571428571431,24.330798234954045,11.127555038410982,16.65815168402324
143,0.04557148107313487,0.9037367993501221,17.06733055383535,14.555573122073042,15.46630039909537
144,0.04895380971180418,0.9219214784498224,21.54466904988503,19.06800277876659,16.718434719194597
145,0.05287846481876332,0.9290995710189918,47.580070654306525,10.819631194189897,21.405540234592774
146,0.05748725081131201,0.9914125820146686,93.80605161074486,20.503481209449163,15.39376532174008
147,0.06297613001523616,1.407000686341823,36.60792405429298,17.80466100442931,17.727633507472014
148,0.06962380685008422,1.1790277960742874,68.75556176451897,12.45087021292978,13.775317306952296
149,0.0778405524168236,1.1787594415198286,29.952159287611963,17.786674544204583,18.515847181267056
150,0.08825622775800712,1.1694670470956805,24.74265957118816,15.450285822249276,19.210936965648376
151,0.10188989317995067,1.2347826086956744,22.152173390688713,13.840416963187513,25.15149379700486
152,0.12050534499514093,1.1098931214031122,38.26176525755066,17.095088786669876,17.35764835778624
153,0.1474435196195006,1.5829663898332476,23.027115752440114,19.338024763631662,16.401468429385353
154,0.18989280245022971,0.9736635873566198,29.333563280149875,20.462307489856016,20.942333290472263
155,0.26666666666666666,0.9812173829393253,20.930364261741623,23.02485418539379,16.2150231222855
156,0.26666666666666666,1.0232387731602641,28.414735599729887,19.34777629262157,15.771097864296932
157,0.26666666666666666,1.0309278350515465,39.51914375888736,19.548014029711798,11.423845803569748
158,0.26666666666666666,1.0279040270584505,58.51705741002884,21.689460747139357,13.87085884526032
159,0.2692307692307692,1.0194263126414063,37.65303590440985,19.954321858701448,22.004352658898014
160,0.27999999999999997,1.0089943180370473,33.717949222157785,17.286397319821862,19.476889024338558
161,0.29166666666666663,0.9988762642027719,21.856603119503244,11.812204649398417,17.65293614818212
162,0.30434782608695654,0.8921574537343995,34.74635606636027,14.668264392618285,19.68481379806979
163,0.3274021352313167,0.8668824408986827,67.89101285163223,9.295218278508768,19.343359430841062
164,0.357976653696498,0.9273769400854388,34.36934058472849,9.753463995311165,21.89715829075093
165,0.3948497854077253,0.9195014446295632,39.25429926293229,17.302695422244856,15.431737426557227
166,0.3385579937304075,0.9161336626348343,40.21101646135318,16.46282951800499,16.188532595297662
167,0.288,0.9266099584186414,29.762887492789478,9.96206168165822,14.382170636631136
168,0.2505800464037123,0.8929653723382767,40.669671527977236,16.637277562843956,19.235979280708584
169,0.24778761061946902,0.9151517661186805,31.580038610802138,16.342617532668903,19.03461728569569
170,0.2772277227722772,0.9209272785011116,30.713417386336413,14.271553435638403,14.203632082893078
171,0.3146067415730337,0.9002572163475274,62.7977529984123,21.68017862952705,13.50862301059771
172,0.36363636363636365,0.9194726677302884,54.37119317376468,19.502799226016883,19.07428864614331
173,0.33444816053511706,0.9610079087732212,54.0277432032806,11.74900289849101,16.628554936124665
174,0.30959752321981426,0.9750761035007608,77.8465726760267,22.728889416294397,14.130332052167592
175,0.2881844380403458,0.9943742597710227,41.798027767023996,21.230147065655387,10.635885822271684
176,0.2857142857142857,1.0180555915343368,40.350812265839025,17.488682063783646,16.73157051245796
177,0.2857142857142857,1.0117050431575445,26.1365962796135,12.257714519772954,12.324529815948557
178,0.2857142857142857,0.8844881905171913,34.620355123898854,19.74023862292296,20.605839129783156
179,0.2799097065462754,0.8278867102396515,34.75285481663257,23.102797690055187,15.909948379928732
180,0.26552462526766596,0.9027409011069808,36.878421907195246,24.411095248827163,16.45786140754732
181,0.2525458248472505,0.9002620018517433,21.061029434295023,14.842015545789348,10.025574920558386
182,0.2407766990291262,0.8438969444494109,19.85414362435874,17.95331506093374,10.408066430007862
183,0.23225806451612904,0.8499756892546504,24.938744112858878,8.646066912415739,18.834672082035365
184,0.22641509433962262,0.955365164230776,50.930962375477364,14.50578924810005,9.844477518027118
185,0.22085889570552147,0.9484940377117586,31.40778438233285,7.754662863252743,21.044296844755973
186,0.21556886227544908,0.9220024274428804,15.239479084740088,19.2661872633338,16.3665274102436
187,0.21052631578947367,0.9014875562157871,22.50028324368554,10.297366992145173,15.281890176922637
188,0.21556886227544908,0.8979015334947537,19.140368744705555,10.03482800633878,48.64416767409348
189,0.22085889570552147,0.9120439780109945,18.57530900862369,13.117567507810268,48.58355688780206
190,0.22641509433962262,0.9185742039023567,6.175984676504743,17.57006947210717,95.50004331042308
191,0.23225806451612904,0.9122706539303316,17.023683392452714,14.09330336839882,92.21975790247915
192,0.23880597014925373,0.8775043382236946,29.122874158505027,19.8813070500338,75.40278597287714
193,0.24615384615384617,0.9249251745926166,13.1518247009027,21.91300723891859,42.630190035172724
194,0.25396825396825395,0.9298412150500518,25.12906653187146,27.97046906731812,95.24192898640258
195,0.26229508196721313,0.8834590206339422,16.843056759653795,17.888693060710057,40.668697614072606
196,0.2585551330798479,0.9257895512024725,20.024817982584615,17.044763275990963,83.79543421869134
197,0.24372759856630827,1.0178439982739769,33.85071918083126,19.57824628161917,87.94750764471605
198,0.23050847457627122,0.9877401101901057,59.83388831616545,19.57113644593219,16.50901397708656
199,0.21864951768488747,0.8755338026246535,42.337594094603375,16.075571885599217,15.742578077126478
200,0.212443095599393,0.8635481945687841,28.179288859899916,11.161279501585899,15.453875432041343
201,0.2204724409448819,0.9183457051961806,18.237593557056087,12.510926490523225,11.770721810589682
202,0.2291325695581015,0.9536194191590803,17.340424521607474,11.52883866772885,13.501532843475427
203,0.23850085178875638,0.9376404855179553,10.193755016080361,10.492101561045583,15.375398205627421
204,0.24866785079928952,0.8755949932420503,20.100571233400796,12.003789404866788,25.138776254124977
205,0.25357873210633947,0.9271293648730605,31.54930244680644,15.991088300172496,15.882788879104309
206,0.2577962577962578,0.9432925086303581,24.615131980895267,8.727731439412018,15.784042127938077
207,0.26215644820295986,0.9229974827341391,17.025040591880774,7.961929018955292,18.711294857867173
208,0.26666666666666666,0.9405007234620935,21.006350665200966,13.33959884644283,16.257227388298794
209,0.21374045801526717,1.0119846834750539,35.339472595312785,17.603714560437837,13.314720203481835
210,0.17834394904458598,1.0211276801337132,66.48619280579102,11.688434511153053,13.885731529721683
211,0.15300546448087432,0.9363593080463465,21.787027870326874,21.665265490375276,50.23766796419336
212,0.1339712918660287,0.9120507576073806,30.45010510585952,15.71797524920655,38.618354814497906
213,0.11914893617021277,0.9035898274593184,22.942109255322972,23.96048023960189,64.19462661557857
214,0.10727969348659004,0.9278703981485418,19.381554432734855,12.398018448585708,86.30563216701718
215,0.0975609756097561,0.9363829740575879,31.09363367777223,18.69505268397897,93.03818158976048
216,0.10559284116331095,0.8971483498878614,20.35403114875831,20.8368580549258,121.69252151692898
217,0.11506582155046319,0.9087250312440289,21.499107799510526,14.843760435564413,86.23543663007632
218,0.12640599892876273,0.9869126796824804,22.334355079070765,16.619184946770318,92.23498990542714
219,0.14022578728461083,0.9617006917496043,36.34192412180962,16.55753194116554,112.12911270733312
220,0.15743829219479655,1.1188234921238536,50.9346705282477,18.8463218413283,18.854632564273754
221,0.17946768060836502,1.2262300030183961,68.00821314827586,16.462495163434706,22.048773437741485
222,0.20866489832007076,1.2258458718399259,53.616917252193446,18.517119736875337,17.240012696821726
223,0.224,1.028673935588776,43.90773725538266,28.285667999635706,16.678515057512456
224,0.22690437601296595,1.0601868339588438,26.191212649188287,16.00139458900247,19.025271194798187
225,0.2298850574712644,1.06951871657754,15.2711794271238,17.015848470177833,12.503668200461112
226,0.2329450915141431,1.0693821977647948,26.235461300271737,11.641268924418519,71.74091132531146
227,0.23529411764705882,1.0515045025258092,38.96166866125464,26.440914758128603,105.39026340649735
228,0.23529411764705882,1.0356731875719223,22.222779239726197,18.352758726269936,78.25293303711129
229,0.23529411764705882,1.02940400147812,16.438638376366338,15.429395989495607,55.494309804303484
230,0.23529411764705882,0.9829649068185115,17.678698195766156,20.459043142508648,79.6776012130802
231,0.23529411764705882,0.8170961659333678,25.446632023202984,36.32983374515633,96.76145094657002
232,0.21593830334190228,0.8918362680082241,7.716074927642437,24.882676358878253,93.73434836623255
233,0.1995249406175772,0.8976660682226216,18.228614157400354,19.24409829054217,105.399412325683
234,0.18543046357615897,0.862781954887223,15.34966057837295,17.966427050303142,43.756409810633734
235,0.1731958762886598,0.8552631578947353,9.133346967809059,13.078591038930627,20.382423570077673
236,0.16247582205029013,0.8726703330278003,11.50523537001752,14.20018088542668,15.695173045363665
237,0.16889804325437693,0.8992475683611633,14.267208640089956,12.219983981133318,15.531983477205205
238,0.18242491657397109,0.9422367882015478,18.03309659199742,6.592227731832675,14.398704625110854
239,0.19830713422007254,1.0101010101010102,14.845713820578462,4.967864467629527,14.597154194071361
240,0.21721854304635763,1.0120729514513214,37.54126630234592,12.906533674856592,11.68055303913099
241,0.2401171303074671,1.0193230450006492,34.90504975054274,12.580350642574187,16.82959111066145
242,0.2583518930957684,1.0140685972478956,15.348842816900252,12.288502681272618,19.523455987501436
243,0.27294117647058824,0.9670281035627627,25.63090268045745,20.903254278264882,19.950254373331173
244,0.2892768079800499,0.8415475825779775,37.19974229622358,23.633803603617316,15.841211604757357
245,0.3076923076923077,0.8762876925674988,22.321379723176733,9.93421741649488,20.064932142642
246,0.3076923076923077,0.9121773632756527,24.539758767489765,11.599242544825628,26.058324453974375
247,0.3076923076923077,0.938086303939959,51.07645570551397,9.61373339506771,17.917721114121886
248,0.3076923076923077,0.9674500614806351,31.029493331495246,11.699757530139225,17.050860469636337
249,0.2831858407079646,1.0629263348217755,26.69307536289884,23.57846711487132,19.924749394305742
250,0.256,1.0829581236573398,38.729244135326994,12.019428609051312,12.760935083410814
251,0.23357664233576642,1.000103369857363,53.89281309469961,12.265622875361492,17.626519929102653
252,0.21476510067114093,1.0361876709446591,47.63358161633414,16.162583570167484,21.20238835864781
253,0.20725388601036268,1.0519938312403596,58.47879479582329,8.731717907384063,24.515222707580843
254,0.20304568527918782,1.0417802988982234,55.23682821837181,13.050887723701743,14.771372136759371
255,0.1990049751243781,1.0524280426495782,45.54105687738814,20.21442680933439,17.22233476628012
256,0.1951219512195122,1.0480734754668048,68.51317023449053,17.659802129426556,18.6498576217896
257,0.19138755980861244,1.055869637512474,77.40576048254319,21.7315876834801,65.08515717805889
258,0.20915032679738563,1.0416666666666667,70.74556829663352,26.630934482290087,55.75455287762241
259,0.24060150375939848,1.048003539431475,30.6258572531225,27.833172074126207,62.40237180852604
260,0.2831858407079646,1.0662129590245297,33.58596224571381,20.87824398684787,26.388974110023582
261,0.34408602150537637,1.0621768976524748,32.75236098966035,12.128121426448143,25.720692812582147
262,0.30493273542600896,1.06951871657754,41.311583300056746,24.449908326469686,33.04733219493535
263,0.25092250922509224,1.078049630964141,42.023439123859724,17.524956733245073,26.94938393808786
264,0.21316614420062696,1.0869565217391304,25.746565224434686,21.065639358438926,32.308586225851975
265,0.18528610354223432,1.079220627698053,27.229419069557117,22.369745673069918,84.48375813766683
266,0.1745877788554801,1.0838996953363003,62.275680549107946,18.828947008527575,105.95210635961385
