time,breath,heart,delta,theta,alpha
66,0.0554955553709396,1.3635313149988444,27.7077324318414,15.397865590528513,46.100784480723036
67,0.059829825347066726,1.2670565302144243,168.06730144010305,30.803996758153254,52.89027561233106
68,0.06489847469153794,2.1246789633434537,126.46932555682696,37.80424717777134,136.188815788956
69,0.07090542405264834,1.0386894388288679,146.46586011249062,31.25925813078529,63.70969052245944
70,0.0781377938940227,1.0752102784658508,46.65633979855809,17.885233211963474,48.074075039735696
71,0.0870131561807998,1.1171115568585088,22.563832367031463,14.818507421895498,39.0510840965433
72,0.09816311535635563,1.155397773116025,34.48299035883312,29.513727691549512,40.28814454353776
73,0.11259059497724593,1.088168801808589,30.196695142596056,22.132891460104215,28.11106003492392
74,0.13198972535072123,1.0117284681909802,53.57804372429875,16.270648477751703,37.11731326500716
75,0.1419624217118998,0.9232831153359198,44.99820176448549,14.003230208518955,36.0813422498931
76,0.14771904417089066,1.400009589106793,20.7854921452685,10.056254230303407,24.869273871708618
77,0.15396226415094338,1.121353226266275,14.830921399700092,16.187593755954705,29.767638823342814
78,0.1607565011820331,1.1619053924327174,20.80811442087223,11.246930140890006,25.22455817883344
79,0.16817807089859851,1.2629663330300298,20.53369775212351,9.170485283295154,27.0110639997392
80,0.17631806395851338,1.1811685582177232,20.21640602562232,12.109514068174375,27.199172110541987
81,0.18842530282637954,1.3237121284526585,21.23501641854674,13.435509024367875,39.86382900921885
82,0.20864381520119227,0.9171682430495856,14.78477377731128,10.11168806992914,30.723371429220588
83,0.2337228714524207,1.8971957075947066,17.968594557845737,10.932591987332165,29.06567577429874
84,0.26565464895635676,1.5289058767319619,8.154655764243067,14.961591247252453,24.266141784043022
85,0.3076923076923077,1.3986013986013988,9.062074260209458,11.336947431820523,19.32143265326031
86,0.3464566929133858,1.3766024882917836,8.888212984029288,12.356301048265731,16.160441548730113
87,0.39639639639639646,1.3743608987288334,19.929756078766335,13.008096582242324,31.470318614505867
88,0.4271844660194175,1.3239875389408096,7.742743017345545,11.149144378676281,34.62920620376174
89,0.3697478991596639,1.2668377164849263,15.092141193083613,18.13808522908018,41.64918680392539
90,0.3259259259259259,2.4979009235936758,29.64274982849959,13.787128088870237,42.289871779659414
91,0.3115264797507788,1.3133208255159468,78.44373722590086,20.47036734500896,32.30468503851407
92,0.3194888178913738,1.3100247256322408,40.62569942743707,17.734449994074758,36.3707435362885
93,0.3278688524590164,1.3855569155446752,48.844982989364034,17.366053061947042,48.06846104945569
94,0.34108527131782945,1.3610741945832,16.409720017946672,14.421029322947684,27.249585231901236
95,0.36363636363636365,1.2936448128610902,12.443261998954668,8.614283397504604,38.45216917022146
96,0.3893805309734513,1.2595359186268278,17.681772879835204,14.938971846465634,26.236874857476593
97,0.4,1.183124002498092,12.337290069672527,13.74042913664192,31.88827832699505
98,0.4,1.1731843575418983,12.722086200063664,7.257754999572557,23.59738252730308
99,0.3981042654028436,1.2109460744859883,14.238450397536262,11.510772399574112,35.768853668952175
100,0.3835616438356164,1.1851591348689996,13.496321124066517,18.02038167305675,23.800584841038784
101,0.3700440528634361,1.209706628033322,15.535361059261442,12.03525070067758,21.693601586245485
102,0.3076923076923077,1.212188202350687,17.522684812564716,13.537812229512733,26.925302009231192
103,0.23529411764705882,1.1803026057719253,13.55887125650654,10.665846766909617,44.90215267272964
104,0.19047619047619047,1.2200142210246638,9.536057026124281,13.081397575992867,39.092870203986884
105,0.16,1.2730358874878767,6.197425125709783,12.296584227052987,55.1935371362636
106,0.13793103448275862,1.2531725888324867,8.0746468801686,22.30535961657405,41.45136888048852
107,0.12121212121212122,1.2367491166077742,11.52253377754509,13.003979167574506,33.929389760938186
108,0.13927125506072874,1.2159390565484893,20.97867649894306,14.270427891440491,41.39869242955234
109,0.1636536631779258,1.1109735718264506,8.482599768124276,20.985458675112923,33.44648030018365
110,0.19838523644752015,1.0767315985990913,37.44200668530558,26.61785058535229,81.10214346739531
111,0.2518301610541727,1.1496113989637335,33.455494558621666,27.163226328361702,36.19787494017381
112,0.344689378757515,1.2157833430401883,19.684791786040822,13.725419566029675,29.788701246187966
113,0.37551020408163266,1.2848143236074279,19.81574936765427,14.032034018343545,42.4680467989699
114,0.3420074349442379,1.2910211560886216,7.583518272555603,12.425131944293474,30.77037207687168
115,0.31399317406143346,1.2360939431396754,15.352937956324494,19.15773699518583,56.488210304939514
116,0.31347962382445144,0.9812108559498844,11.002230787478483,18.892826912115652,60.20563581878864
117,0.3215434083601286,0.8919883230619498,8.167933665452532,47.38966134411547,48.274509104096694
118,0.33003300330033003,0.938987451319779,15.861265219758929,33.92935029796795,51.67018440055937
119,0.29931972789115646,0.9073503704320282,16.369803277502914,31.42086595892207,48.87692123958991
120,0.2573099415204678,0.8790571870170022,9.161902111559359,38.95346908558408,75.12910261043643
121,0.22564102564102564,0.9399127223900686,9.020206579392326,16.489037956654396,48.28939071226683
122,0.20091324200913244,1.056090778866953,13.24972095378243,19.995277466655974,43.55677166488208
123,0.19136522753792298,1.0615293886377002,8.622836267895428,14.461748705614248,31.757235433071934
124,0.19316843345111898,0.977097781273084,8.182245218802208,16.132959493676793,48.39850919718652
125,0.19500594530321047,0.9634853033582375,13.651572987355394,26.775753739807843,45.430609757291315
126,0.19687875150060025,1.0173626430666243,6.052861083687584,23.168550043905217,33.13487808970671
127,0.1987878787878788,1.0773921881806334,19.19522527047861,21.96308288946846,36.15427396648748
128,0.20077220077220076,1.133525456292029,10.577206600942155,17.69670486552992,44.31500125065317
129,0.20286085825747724,1.112639079884984,14.570429532445793,16.00785992440426,39.0182606356441
130,0.20499342969776607,1.119402985074628,12.200712834274984,9.439741869661761,46.318141797558454
131,0.20717131474103587,1.1821619595952746,14.828170420026053,14.713872959232537,37.51912381014481
132,0.20939597315436242,1.2562517229157637,11.225045729155008,18.027374523109696,56.825078387265066
133,0.21587301587301586,1.200932066678608,12.832073760887305,11.09016929852287,51.4307318442527
134,0.22742474916387959,1.0760527236673214,5.65318456218429,10.108921725045802,48.98156816717534
135,0.24028268551236748,1.0309278350515465,10.540361743718067,19.663817001691765,46.49864594917357
136,0.25468164794007486,1.0679172787885667,14.198602058967673,27.456378501791004,41.6856803413762
137,0.26666666666666666,1.0914173556176772,14.856768087362012,23.36146323382549,30.35862704946099
138,0.26666666666666666,1.0547987703415365,9.537184700583547,11.444460933064358,39.54016267253565
139,0.26666666666666666,1.0239178749073958,10.426653469047515,16.873784156605346,35.8681579495449
140,0.26666666666666666,1.034574468085108,10.158614845297224,24.275090477105845,32.85285618813819
141,0.26439232409381663,1.1081073051899901,9.02266277901161,25.775228751638462,33.54867429295275
142,0.259958071278826,0.9755524212505858,8.566967169794367,23.831972161509434,30.93785681817159
143,0.25567010309278354,0.9531465319246655,7.097040537044256,13.947852660385411,35.46636517358551
144,0.2515212981744422,1.071776550828198,15.106847145811718,31.325703244638134,44.79434227353951
145,0.25,1.087669435942275,7.922316045235623,12.809152626395422,28.892644218458262
146,0.25,0.9273772204806701,18.337423296840644,25.035216579018897,41.676914471945004
147,0.25,0.952253218884121,20.823526199491116,39.12594921239272,58.46255301658922
148,0.25,0.9655459849958324,11.89864197904539,13.101672092911876,56.879429654994766
149,0.25531914893617025,1.0895985248512308,6.184723119946161,27.77121432456667,33.84131349136962
150,0.2643171806167401,1.00513963085804,20.92198447910061,23.785181689297993,48.987406291395544
151,0.273972602739726,1.0126852147958665,13.680294728129581,41.84453392899511,34.57775720610803
152,0.2843601895734597,1.095267617276296,11.353622970145532,15.278415399602123,32.80366743992386
153,0.28087167070217917,1.0421041579168384,9.145383861834627,22.601571340782638,54.58689226753746
154,0.2755344418052256,0.9636923651297371,4.035520376341134,29.031754580744572,36.99298703103582
155,0.2703962703962704,0.9937306521682656,9.336839056022413,39.5641677041733,43.014777367391986
156,0.2678983833718245,1.120292142481352,12.903066229071246,20.331383153934766,26.587070087042193
157,0.27294117647058824,1.0617894766100537,10.710180937581553,21.9723754507801,36.25112401392936
158,0.27817745803357313,1.034073114099035,7.233823834136163,11.99017264414961,48.02584019723953
159,0.28361858190709044,1.1033468186833406,9.153759616374794,15.228048325431319,29.151400544330468
160,0.2937853107344633,1.135923583322576,16.389868900713815,9.241732983573918,49.1045515190169
161,0.3076923076923077,1.0962792945155826,12.709648933171477,15.082592522190179,41.96195711481253
162,0.32298136645962733,1.1311005387693385,9.700070631983277,19.12681161871468,33.524589325611785
163,0.33003300330033003,1.1436248648294391,6.450516354893179,11.891907782872286,33.24937296031476
164,0.3215434083601286,1.0929957191001,5.912749462094073,21.253497595268108,36.864275420212444
165,0.31347962382445144,1.1360278425320955,7.861066999702587,16.605391943964456,29.454455337568337
166,0.30959752321981426,1.1738133534102182,13.537364978836617,14.316574134427992,36.74948383479686
167,0.31746031746031744,1.1437160969871247,16.791993260611132,25.298221483206444,45.519061464235094
168,0.32573289902280134,1.1476865401690293,10.045578433367409,14.604189996004775,31.05553121358509
169,0.3333333333333333,1.1710481392966887,10.625235935928808,15.785191536726012,42.93564029564502
170,0.3333333333333333,1.14040870138431,12.518022609440388,11.956805822484062,26.310057962790506
171,0.3333333333333333,1.1311555338859107,9.638114417696466,19.928428299230777,29.847100745500526
172,0.3333333333333333,1.1658556366585557,16.591494447921054,18.643370393762652,47.65558899600615
173,0.3333333333333333,1.1363636363636342,14.409532150263486,21.440902545546987,56.91398949169275
174,0.3333333333333333,1.1111111111111112,11.493680916718796,16.17992710427963,24.801720808372576
175,0.3333333333333333,1.1404872991187163,12.665621987438508,18.84177245556115,46.071279477176915
176,0.3333333333333333,1.1388852630204926,9.691362403078857,24.90002950976932,38.48477906408309
177,0.3333333333333333,1.1087367214840957,7.747967163523462,28.562184611001666,38.66208738106799
178,0.33222591362126247,1.1751707513057466,7.051262021295677,21.206954555793892,49.51461291411468
179,0.3236245954692557,1.1685347323953257,6.102328420245822,18.954862654660584,33.22053373913133
180,0.31545741324921134,1.173863360919701,11.771981340549765,13.271133809749012,27.046930088347708
181,0.3076923076923077,1.2050379296577263,17.445372524772157,30.273819403705062,33.52111071030231
182,0.33454545454545453,1.1767170641432998,19.64020494389229,24.776380760958208,36.146877729723876
183,0.3665338645418327,1.1288137779784546,12.591817990608488,19.124792280353592,26.46926689366599
184,0.3819095477386935,1.1692369720794265,19.214397587691714,10.856671863956095,27.52417740187114
185,0.28044280442804426,1.1391778107974277,14.413538871595343,13.540562005774243,30.619962111986528
186,0.2215743440233236,1.2023684114933368,25.038953448066,15.843462657153568,27.691957132381198
187,0.18313253012048195,1.2353681320776309,56.66417135636297,36.503331820989835,56.951006945932114
188,0.15605749486652978,1.2483957531209897,105.9555671767782,24.823140543006048,46.27923768821475
189,0.14814814814814814,1.0857592446892168,120.26705554629494,23.22986196505828,40.86855284384839
190,0.16438356164383564,1.1081546407888576,145.73271487563636,30.911480243926384,80.57059494498486
191,0.1846153846153846,1.1614875191034135,92.6486818745211,27.329008251407373,117.04672488000104
192,0.21052631578947367,1.1941792699059675,68.21043444449464,18.7845062719199,40.437340430480205
193,0.24489795918367344,1.263066202090595,56.967282717586315,14.519808016815116,33.13574554659852
194,0.28169014084507044,1.2697379130717887,47.6466362814903,12.087908866796765,21.31444995052782
195,0.2531645569620253,1.282051282051282,64.94002561278802,16.357908215634428,31.663651449869466
196,0.2298850574712644,1.2680577849117165,28.173698175888376,10.500713421505798,31.839711251262944
197,0.21052631578947367,1.266480223731522,27.212595457800408,15.869336717380998,42.94865373811971
198,0.1941747572815534,1.2980508368462795,12.453235847842729,10.35588300149356,28.983611489726936
199,0.1869158878504673,1.2656716417910452,16.62079832370739,26.79406841918447,39.878783944037366
200,0.182370820668693,1.2160413971539454,15.813618242183875,18.211248679700972,58.861743582215496
201,0.17804154302670624,1.2107950401167031,22.465146874570706,29.643645971881387,40.905679781622624
202,0.17391304347826086,1.2628441446387946,12.99929580969559,24.524643889324217,34.99144428996796
203,0.16997167138810199,1.267021906453521,25.041488297441575,16.633596401985677,45.18784728083281
204,0.16730038022813687,1.1994972167354998,22.785732403053018,10.86250859009219,38.69755783193287
205,0.17254901960784313,1.210750884358704,10.561061461382556,15.67874700330436,49.86908718806052
206,0.17813765182186236,1.2206047032474803,23.512110230345716,22.91538117104411,50.326420200905346
207,0.18410041841004185,1.1709683007102032,12.947493088267766,8.635211979271057,23.485434968392312
208,0.19047619047619047,1.202761627906978,11.391810658378356,22.9600030906078,41.85413839739762
209,0.19730941704035873,1.2161762531420963,15.299965413331643,29.450596153040177,66.31023159301625
210,0.21333333333333335,1.1229484595450552,22.023731297825506,18.11296954817705,43.80891071129628
211,0.23880597014925373,0.9708737864077602,21.41524289795261,18.835777872333463,41.84718724638426
212,0.2711864406779661,0.9394732789157562,10.634174549706035,16.05523545688432,33.44433289843846
213,0.3137254901960784,0.9951838018478488,12.802621768492159,13.663309456299123,44.51481046510796
214,0.33948339483394835,0.9785962205939054,18.344689646840557,22.2757843303757,34.97966384843201
215,0.34980988593155893,0.9659249604319906,23.693487278520028,18.779568890921222,41.555470413332095
216,0.3607843137254902,1.0235788704076063,11.614699531762266,12.424769246513966,38.128653968420664
217,0.3846153846153846,1.0129910300030895,11.255382052347727,12.678503916779928,43.42520609865012
218,0.4166666666666667,1.0178313749742351,17.418105721481606,14.441400164580205,36.859421082276015
219,0.411764705882353,0.9135880433638496,19.257383242871935,21.05803348349247,37.10516748261814
220,0.3181818181818182,0.6378328928643962,28.157389709423878,17.13362082557928,61.025127300513276
221,0.25925925925925924,0.43917973124299925,72.89488995810842,14.463796156727595,50.65999850645362
222,0.21875,0.53217223028544,33.829674267584465,11.365263677126313,43.08503973400272
223,0.21052631578947367,1.268742791234147,29.91268105798896,13.09288454389693,76.92589792338892
224,0.21052631578947367,1.3969081765691607,98.97649006712372,24.778198960575747,166.3626833436935
225,0.21052631578947367,2.684329789088379,110.9125722924004,18.382522848841123,67.94240285209186
226,0.21052631578947367,1.5318172616236228,54.19152662534204,8.243007069515835,31.353941675481245
227,0.21052631578947367,1.198797707255697,45.17150617098714,19.268073207121105,28.861884032656288
228,0.24778761061946902,1.222539873608185,95.91979186223529,37.99940431662908,80.22490280499323
229,0.3010752688172043,1.2422360248447204,33.108527600250085,20.42160981571025,67.92024020287268
230,0.3835616438356164,1.256697132051685,23.152401288157595,24.134981320939985,44.76045467240774
231,0.417910447761194,1.9725661568342654,47.89630810611365,33.154428175413244,73.41355125381321
232,0.37333333333333335,0.9003299753064824,53.75649879855553,19.127801164572475,48.777279413797004
233,0.3373493975903614,1.1055831951354396,127.6156885330188,32.7760738317036,56.85521314189314
234,0.37735849056603776,1.0060362173038215,208.94814759755937,17.668096575567418,57.94386395481768
235,0.4444444444444444,1.9744889044207987,113.70915944911961,18.5343169994674,47.57281647902992
236,0.44878048780487806,1.3892204134243606,44.94057998953722,13.304800552327924,40.29691283247546
237,0.35249042145593873,1.2097653127951753,26.108499429168454,14.464311253137918,36.76135809273128
238,0.2902208201892745,1.2339137017411053,23.8156663272618,7.752762730249726,41.244706421398206
239,0.2857142857142857,1.2605206498336272,7.813887598835496,12.65249019896076,42.150682000909974
240,0.3333333333333333,1.1594202898550712,11.20193518211403,10.969133785892641,49.890735733071025
241,0.4,1.089699812939814,9.003021087117467,19.771120571946568,38.80713170511293
242,0.425531914893617,1.0096847310941657,6.4068571782321415,12.81629438468541,29.928087065537497
243,0.3921568627450981,0.9723402246766739,12.314008376420492,14.722283866441257,44.98955159977564
244,0.36363636363636365,1.0205667512821877,7.550400736714657,13.353596282628514,27.75729758449479
245,0.4337349397590362,1.0492688166120459,12.692032297054821,8.205438638487362,34.34330728253039
246,0.5373134328358209,1.0814101820712068,12.3975874579278,23.706714471936902,39.319525313423895
247,0.3855421686746988,1.113029536905717,8.79823460534082,17.282172980600425,44.31353216869775
248,0.2689075630252101,1.1837751168423603,2.9951386512284945,22.475223612696045,41.9060674844812
249,0.2064516129032258,1.2383900928792577,8.878086245561704,8.718090986616918,42.45571840023841
250,0.16753926701570682,1.278269419862341,15.436556410478765,12.96464371998453,28.578420833774317
251,0.1665053242981607,1.2874823490323108,10.943835178574165,13.925529358879233,43.45523051576969
252,0.1760491299897646,1.2591437822280844,19.5696579067756,12.417658822356094,48.28587250569899
253,0.18675352877307275,1.1237758869802557,24.43484366426558,21.82408341403506,50.474304812775564
254,0.19884393063583816,1.1793113101903705,8.356248707639871,14.174762328831894,45.080174085812025
255,0.2126081582200247,1.2048192771084338,4.874582534939577,18.079867579915803,31.48200894912814
256,0.2315369261477046,1.180964395850854,7.175686419955053,7.934003875646322,26.718505707500572
257,0.2606741573033708,1.0293019008881845,7.052608809167496,18.881840991157233,36.73911852750115
258,0.2982005141388175,0.9618084807638289,7.168260909989694,24.110194063781847,42.69895830228197
259,0.3483483483483484,1.031487513572204,5.198730402211379,15.792871836367597,28.99956485406621
260,0.341296928327645,0.9783436985324822,9.724526226636756,14.079035768729904,25.711235680750423
261,0.31545741324921134,0.9743783324682683,8.581928117148763,10.20595236254878,27.264812986332373
262,0.29325513196480935,1.0507597801487265,11.876115404440377,20.499125271409884,22.478465563676146
263,0.2857142857142857,1.0849167253108143,9.060418275084093,24.650904253095288,31.692190061485245
264,0.2857142857142857,1.0144083059646152,11.408150417808557,26.00279456331543,51.94398621294973
265,0.2857142857142857,1.02823055388399,8.305395350395639,24.46739249245421,44.87813173611306
266,0.2843601895734597,1.120346946151063,5.213671042863343,21.245011417988252,35.48988831246742
267,0.273972602739726,1.0578751439513698,7.28769112640554,15.134979433736323,27.372811386060338
268,0.2643171806167401,0.9689922480620152,19.07308752369225,29.54419388984682,27.866093199100032
269,0.25531914893617025,1.0136205258156448,11.164554141805912,17.996264175635467,36.62688276396512
270,0.2549450549450549,1.0735142562693238,12.893403127781678,26.165472472645593,34.62949015499258
271,0.2691415313225058,1.050940673582187,11.608124677312365,18.86763621285992,39.38650413692375
