time,breath,heart,delta,theta,alpha
1022,0.18921892189218922,1.0082961072112477,68.02647105407168,13.185485753783983,22.938264249974463
1023,0.1875681570338059,1.011564366501436,53.00227435980592,20.555387533427943,20.581565650341503
1024,0.18594594594594593,0.9787772446226832,42.7964860640543,13.881798079106211,17.262465058668774
1025,0.18435155412647372,0.9705298951544419,38.582975233449396,20.258986600720707,20.900291297910627
1026,0.18278427205100956,0.9946021591363678,48.007063782183174,21.211636241288797,18.47600790680882
1027,0.18433179723502305,1.037501350913229,44.38550116617451,17.927549839137203,21.527292219279502
1028,0.19138755980861244,1.0339342523859778,78.13343090257607,13.360675647502587,23.362136906611582
1029,0.1990049751243781,0.986078886310891,48.76352712442394,17.10468254635188,27.307886890533133
1030,0.20725388601036268,0.963055787617193,54.59299817401631,15.868941531776457,18.057270988089666
1031,0.21621621621621623,0.9703236773142633,59.59328162331035,17.204062274467745,14.324801110877177
1032,0.21940928270042195,0.9778201764846144,78.48461534905593,14.590783740100557,20.32112677661403
1033,0.21224489795918366,0.9641555565807006,60.25802406198258,14.060984336890522,28.500575882019618
1034,0.20553359683794467,0.9442596602451074,52.27873511123406,17.036710284678474,22.644732755018367
1035,0.1992337164750958,0.9504104044928575,38.629023078096225,18.092423696171775,18.81824611735229
1036,0.1933085501858736,0.9675824563881686,62.79486346322532,18.749781407050346,26.84732034943616
1037,0.19672131147540986,0.9825487608153769,41.38336964915073,13.277871489066682,28.527764171005405
1038,0.21052631578947367,1.0086746015735248,42.871304999335635,14.774892278968503,26.224939980113213
1039,0.22641509433962262,0.992524813120334,44.05752119288391,15.578434659401678,16.935044862444464
1040,0.24489795918367344,1.0269065435440272,70.56564993264388,17.46825508462639,20.787318393976452
1041,0.26666666666666666,1.0339080160424778,40.83189756790384,12.528229377529904,18.916025067264112
1042,0.23974763406940067,0.970313041469318,46.42040881490831,19.063316489662924,21.412843291769438
1043,0.2177650429799427,0.9347693558220098,60.60819827611069,17.2799393868454,27.588273426536063
1044,0.1994750656167979,1.0083273472211396,55.02167931373142,18.879094025871197,20.089413018560567
1045,0.18401937046004843,1.1242662421649987,56.434549955453576,14.506128491640041,18.144779712882258
1046,0.17104276069017255,1.2440963022693123,55.89601299524205,12.22977609103946,23.259852870018026
1047,0.1604503870513723,1.1077542799596682,64.05275850053133,12.219435568626361,20.379327812843172
1048,0.1510934393638171,0.9774633749970011,30.375264173615268,28.50243358563523,38.65583347989268
1049,0.1427676894176581,0.9315222807131514,43.77436939455249,23.536262026198678,51.19348442124522
1050,0.13531157270029673,0.9132420091324202,34.797764961190715,16.696108423515287,42.4602415459814
1051,0.12859560067681897,0.9095408984036624,29.206431403287688,13.991256622096225,35.14406462887441
1052,0.12251477700161205,0.9059319930503835,46.54479560717788,11.48629668162608,48.76009673666581
1053,0.11811023622047244,1.002444987775137,37.448624769814025,15.117747048344693,52.94448528145144
1054,0.12195121951219513,1.9280205655528249,49.32364600532147,15.990917615366632,31.70950379482841
1055,0.12605042016806722,0.993401493727788,54.52953831898421,15.11516836402613,13.521499126847521
1056,0.13043478260869565,0.952294985783274,64.18494478179463,16.465654023557878,14.953605727685458
1057,0.13513513513513511,0.9437759985686797,47.154261093671636,16.50544218463606,15.700857685971666
1058,0.14018691588785048,0.9354824542140621,40.58989928678513,12.571289122409986,19.912454658141527
1059,0.14563106796116504,0.9419360544819371,37.07948860320865,9.201244054994152,12.763128531367526
1060,0.15151515151515152,0.939953555236093,40.372449923116164,11.054277674382753,17.04897608940772
1061,0.15942028985507248,0.96197997979613,42.44806077835577,12.60996612458427,16.335967089371763
1062,0.16923076923076924,0.9676210111990992,43.35700691273155,12.69117575836994,18.32552397526473
1063,0.18032786885245902,0.9483167377904163,47.554685190780354,9.17934349243113,14.544772840331099
1064,0.1929824561403509,0.9363624402438485,40.86497381833065,10.80317278591434,14.550474146084905
1065,0.20754716981132074,0.9415987238567907,41.26432792480593,13.776880095004598,20.377416239329758
1066,0.22524271844660196,0.9436271782431604,33.48075323279289,16.971645890153866,15.793592191578185
1067,0.25272331154684097,0.9408066586974813,32.28467476094926,15.765230388347554,20.160758213261726
1068,0.2878411910669975,0.9688728857724992,36.56808830430525,20.513929586996674,20.513055638540227
1069,0.3342939481268012,1.0228435049437459,61.07679806021877,14.87123070476937,17.570352389892193
1070,0.3342939481268012,1.0218408736349371,33.353674892401294,17.990300534606657,17.250271138299578
1071,0.2878411910669975,0.9827006246996508,57.73796047356318,13.822722990055835,18.432286052468893
1072,0.25272331154684097,0.952036362814044,41.43094711152705,12.352907457567554,19.423334247982954
1073,0.22524271844660193,0.9532082199922361,45.602273458355846,22.282054080737183,36.219739236311284
1074,0.2199108469539376,0.9743030532903462,84.25777706880808,52.64216313312717,108.6813571693088
1075,0.21732745961820849,0.970873786407767,44.78438550790394,17.167322230833403,48.983069550214694
1076,0.21480406386066764,0.970873786407767,43.79318659289073,10.819398672702578,24.88189428631587
1077,0.21233859397417504,0.9699844990370604,41.65875593101474,21.319820032207097,23.587618941770202
1078,0.21052631578947367,0.9753257151175682,42.60424318509972,21.18486522609235,23.60550448575939
1079,0.21052631578947367,1.0190234785057624,37.25913659512817,17.077730848073784,25.68187700754597
1080,0.21052631578947367,0.9867858625827443,61.05817495310509,13.576748425224578,28.21022365425899
1081,0.21052631578947367,0.9950248756218907,42.151489083201895,19.941875674283935,31.51877088268223
1082,0.21052631578947367,1.0017588131834532,52.639804839582915,16.496961286503,35.440219926709844
1083,0.21439509954058192,1.037084433069398,36.11877724574118,15.65664581228179,21.330736502634988
1084,0.22257551669316375,1.0102800425381098,58.22498147037404,14.901836372491175,23.357046046850204
1085,0.23140495867768596,0.98915592028136,48.810380729565075,14.539408332608513,25.4622168168322
1086,0.24096385542168672,0.9914767785701891,51.16335389691638,14.812526214381593,24.671840392744016
1087,0.2544529262086514,1.019428808591217,51.79102854314504,12.949028727917158,19.525480878061416
1088,0.29673590504451036,1.0090053729536135,37.2147001283246,14.952808479753633,20.26017750685252
1089,0.3558718861209965,0.9881568300517383,35.651046913852134,8.826834888083857,23.190252301778443
1090,0.4444444444444444,0.9961534668113239,57.6116940833371,16.36048924403818,25.394028297548452
1091,0.36363636363636365,0.9848244177806006,48.81455705581948,16.68941808338976,29.36360379807198
1092,0.3076923076923077,1.0143525659459884,55.13711627935905,20.91777852365051,33.37885799856582
1093,0.26666666666666666,1.0594351552620487,49.526037208029564,15.799919833830556,30.067722585191046
1094,0.26215644820295986,1.0560159649657674,48.51021837711164,15.91029387801058,23.862847853845423
1095,0.2577962577962578,1.0380156376381777,68.73966896287833,16.99271041813769,27.678362293423106
1096,0.25357873210633947,1.068979427188393,64.45823873239311,13.372746274992188,23.79118763539668
1097,0.24722662440570525,1.0764480101584204,52.54483512454915,14.117420945649256,43.91532055090469
1098,0.22707423580786024,1.0103071742014442,92.0000512630932,25.7766290542216,134.48750090114135
1099,0.20995962314939434,0.9852934038732218,43.38167301535929,20.702435427440488,71.31997039066678
1100,0.19524405506883602,1.247611554456655,48.48714029625146,56.66819801621496,78.76382120136053
1101,0.18245614035087718,2.839841302985534,85.67241706487228,30.964254632498633,127.28967727099658
1102,0.17821782178217824,1.750338133502905,35.34282856587612,25.780226874752753,110.82511218167234
1103,0.19780219780219782,1.0943373347884018,131.6706722676031,25.845658337076937,41.76737088865402
1104,0.2222222222222222,1.1329305135951697,49.97521522189726,16.140912836752157,38.241767320055914
1105,0.2535211267605634,1.1466890192791281,54.847830793074166,24.957542986154102,64.80767061090697
1106,0.29508196721311475,1.18384160060923,22.80693988385087,14.854778852544039,38.40278979596915
1107,0.2978723404255319,1.1131269026167727,39.455788027389545,14.063815016014706,36.95252388313776
1108,0.2857142857142857,1.06951871657754,31.615629492614747,12.766960178515333,33.307800964994996
1109,0.27450980392156865,1.0790843779994772,41.2001380162821,18.46535345784656,31.98054769443252
1110,0.2644628099173554,1.0549290651145888,53.765925990955566,11.69816678593204,41.42238988211095
1111,0.256,0.9993958312355233,38.958556602545244,14.738167338892719,41.48841174438537
1112,0.24806201550387597,0.9773465876505446,31.974148749111638,11.606171509430641,30.79400550690593
1113,0.24060150375939848,0.9968092211036667,38.9254977460708,15.295194624601422,27.585973405708128
1114,0.2324159021406728,1.013314178702445,41.544056742389586,17.321573516834963,34.766018105214314
1115,0.2215743440233236,1.0119383101911148,55.88606142518603,10.699351174937076,27.53589794200192
1116,0.2116991643454039,1.0416666666666705,25.221206733971382,13.960876479945796,26.191787035000857
1117,0.20266666666666666,1.1503486391825746,36.160006590940235,21.68663186517215,20.49916218279097
1118,0.19437340153452687,1.2390643187023775,37.59324383915048,24.6116213522058,19.28870307540908
1119,0.19801980198019803,1.2035699737066279,53.49847025649715,21.416862674837024,17.740146371184025
1120,0.2150537634408602,1.2453732264034398,39.13496795033413,13.292564810741876,21.063270443240093
1121,0.23529411764705882,1.1185540950454842,42.43619486466024,17.483534161604886,15.101371322844068
1122,0.25974025974025977,1.0999880110298583,45.53429137848167,13.643398056844646,26.40948290414769
1123,0.2857142857142857,1.084212089707404,43.912876465758515,17.245460403356873,17.74470804006732
1124,0.2857142857142857,1.0246395034645117,37.616530019979386,14.274834303746598,19.12223191192083
1125,0.2857142857142857,1.019666856935292,52.47669782684985,13.258943152738711,26.971308844042497
1126,0.2857142857142857,1.0695486616642516,73.00413497239288,12.926295439275275,14.082656866315812
1127,0.3097643097643098,1.075268817204301,44.62945194060105,11.299817689378886,16.549865786733804
1128,0.357976653696498,1.0964304413440524,41.23709558329015,12.288029211229151,21.222384101910798
1129,0.423963133640553,1.1611720368044045,52.09805899053341,16.13389736725817,16.620175141829055
1130,0.3105022831050228,1.1808966454174934,48.37563899662096,17.11680155298659,23.091291763366225
1131,0.2214983713355049,1.203861031777596,34.650071540513565,10.15853018016248,17.94681477773485
1132,0.17215189873417722,1.2387688778436263,41.205701968453056,10.246870812965499,18.576389595888585
1133,0.14078674948240164,1.2488577520560558,38.837517163216376,14.588230696471106,13.575251625297856
1134,0.11908931698774079,1.1717171717171755,62.27372741111787,10.320464518885476,14.498087665552935
1135,0.10318664643399089,1.0918774966711051,54.863356778567315,9.91773240765631,11.950412562751083
1136,0.0962743158588856,0.9958263161748532,62.69411106293994,15.625979656811152,14.11973456288162
1137,0.09915110356536504,0.9047007763310689,45.066708635358225,12.457666914757581,14.17824925819471
1138,0.10220511025551277,0.8927677802910507,51.443265523142166,14.706110135058104,10.388011438615216
1139,0.10545323221379559,0.9055627425614491,62.265478937510785,19.406259263534718,21.866527297862117
1140,0.10891458411040657,0.9088848127614844,28.65881245264086,11.353961319646757,14.206821046140753
1141,0.11261087543386039,0.9051538351019064,30.09361421199432,14.605245840382938,11.7149698497944
1142,0.11656686626746508,0.9157661980057578,25.766929369748535,10.92437664828493,12.95736394995589
1143,0.1208109226313612,0.9207518415036835,64.28624084093717,16.86259655799306,14.005585059795656
1144,0.1253756977243452,0.9339501748441628,29.859497227474066,11.312250805413175,16.461542980764044
1145,0.13085311096856958,0.9536969916636485,43.70464116472255,10.95597544661494,15.207291031712876
1146,0.13868116927260365,0.9643985870979744,23.328086830235492,14.763520361522653,14.224558153480716
1147,0.1475054229934924,0.9634806026977453,38.8166601715412,16.970069552231315,19.203413760805848
1148,0.15752895752895754,0.9615384615384615,26.49063940216376,15.120381451084949,14.509098813481275
1149,0.16901408450704228,0.959216065143882,50.25300903875193,11.124563423530494,11.200270645194948
1150,0.18230563002680966,0.9612052034474003,44.6373016349598,16.109692309074795,13.84327710104772
1151,0.19786614936954414,0.9743114469713186,51.52707320144996,15.170817604898074,24.521307556209894
1152,0.19383259911894274,0.9812645806777467,39.58500856868222,13.118421641145597,13.573358398924329
1153,0.18723404255319148,0.9737721231075425,47.90830292905155,10.39739036180447,13.39365773895082
1154,0.18106995884773663,0.9760171817205547,43.492850023434,12.611499837378386,13.036640312323518
1155,0.17529880478087648,1.0007562389715075,35.20847899828034,15.687822015638623,13.81890335835999
1156,0.16988416988416988,1.0270725797956417,30.694784977022138,17.610635168180906,14.488667411579067
1157,0.17233560090702948,1.067257349979818,36.44400316934008,18.361967664346913,23.275696376624595
1158,0.18952618453865336,1.2065654552700673,32.31779079131167,14.388247729194859,14.753801642383012
1159,0.21052631578947367,1.162346899830047,28.759779917951754,18.106385839113933,16.269706622259047
1160,0.2367601246105919,1.8180165439502611,45.6737077676143,20.11444280192691,18.26645318217434
1161,0.27046263345195726,1.1667152798037093,29.532841744415297,15.18230167229243,14.752567380192774
1162,0.2822384428223844,1.0044728434504882,42.52890001757672,6.911800552774051,12.81364251026122
1163,0.27684964200477324,0.9956548727498462,59.35670652925623,14.140022170562652,20.524601954491036
1164,0.2716627634660422,1.0172705375903157,63.892737184541446,10.143931163215305,18.997226476766993
1165,0.26666666666666666,1.029893313615715,35.961277843682836,13.304561519428976,13.587787016402508
1166,0.2772277227722772,1.0024424994911574,29.393228213734982,10.622553217656439,14.487697290513106
1167,0.28865979381443296,0.9864878096543669,28.754556132985126,15.942822693642315,16.23978313109614
1168,0.3010752688172043,1.0221640085265764,42.952629285076966,13.08486135813399,15.24111387727393
1169,0.3076923076923077,1.0256410256410258,21.819916879983275,12.058983769346955,11.342200418844412
1170,0.3076923076923077,0.9918305144027922,31.86716358727319,9.681475565953365,13.97319375822895
1171,0.3076923076923077,1.0189973884991457,28.503687782522206,13.239667820763724,20.38952298592946
1172,0.29906542056074764,1.025519972722741,36.241925002110605,13.583492760770268,14.784092265223013
1173,0.2689075630252101,1.0101789019124015,27.519417226180487,10.821856560908794,10.781630904845885
1174,0.24427480916030533,1.0050506332326572,38.26569375280767,15.201953274688517,14.538317133749478
1175,0.22377622377622378,1.0161786335071397,56.77588896091852,18.515778465604736,16.468375070766662
1176,0.21393841166936792,1.0945484231850755,76.77341813939272,19.54492975174127,27.176038666977988
1177,0.22876949740034663,1.2524569182246577,29.29957818900911,11.867983828668693,15.80113523575262
1178,0.24581005586592178,2.127659574467394,48.5012121602375,15.01763825626656,16.627697578816893
1179,0.2655935613682093,1.0725570339449824,43.46944253719871,13.229693974649411,13.319927255303629
1180,0.287292817679558,1.0813639138397058,23.136646328878605,15.323810643812864,13.545369215920879
1181,0.3005780346820809,1.0278033996573872,22.861728189015096,10.50103687624351,13.86918985523266
1182,0.3151515151515152,1.0146009836994385,38.12353744332685,15.529670445096734,14.609688118546874
1183,0.33121019108280253,1.0106423704157288,47.08566517825859,11.362931618496335,13.539715433062925
1184,0.3076923076923077,0.9926352865834117,48.94298102311183,15.711489518798837,16.501455081539493
1185,0.2828282828282828,0.9948032665181915,50.20459521978497,11.513227473684202,14.68339396295172
1186,0.26168224299065423,1.0023866348448707,34.09174236900497,14.528890524167316,19.977352633749266
1187,0.25688073394495414,0.9841377309217332,51.73074583944149,10.41223270805084,13.701835904520925
1188,0.2772277227722772,0.9495949594959376,32.98380766830336,11.69096805321925,12.813425485561654
1189,0.3010752688172043,0.9500272084164881,27.466556867354775,11.26688876992939,15.185160475747915
1190,0.32941176470588235,0.977276528637311,35.56769855316802,13.230366030118125,13.284361697138806
1191,0.28451882845188287,0.9868099658036246,53.16849224457124,13.511319372183799,30.683503300486812
1192,0.2437275985663082,1.0134436401241158,76.76644864922051,19.717611138293766,29.443004606522464
1193,0.21316614420062696,1.077541912563544,34.58059267014692,14.746486035294431,15.996650368641015
1194,0.1894150417827298,1.159274193548406,38.52320210880383,13.593375269174892,12.369740137875535
1195,0.18489289740698986,1.2102929417751285,40.32717217640166,11.901030949896574,13.903017570005035
1196,0.19003476245654694,1.153386794062399,59.582205724542774,9.607578769701421,17.87878676933134
1197,0.19547079856972585,1.029923451635289,45.931249598890105,10.582599573191896,17.977782696987997
1198,0.20122699386503068,0.9911371863687263,44.085672275446996,10.200501168202985,15.083925505474008
1199,0.20733249051833122,1.0196239176103068,35.45424509339096,14.180133961555276,29.317210619788412
1200,0.22524271844660196,1.0102046048920497,39.800505667030954,13.770820328217702,17.53999304297879
1201,0.26185101580135445,1.0101010101010102,26.8689809785601,18.377081207221348,14.276695481821148
1202,0.31266846361185985,1.0101526737079032,45.23780390788199,15.966104041408242,13.494161866799143
1203,0.3879598662207358,1.0145331879168944,31.50859277526052,9.434675780484246,16.494571098349716
1204,0.3508771929824561,0.9845859720396503,40.4994933055685,13.67367217098974,11.323867423031574
1205,0.3076923076923077,0.9571378789638612,29.9264859944204,13.828546976801702,13.251394614522587
1206,0.273972602739726,1.013859408165839,29.603479466765926,12.718965102705475,16.307310446302314
1207,0.2703962703962704,0.9905906303532743,46.02717014417486,11.306116867243192,15.427517573475576
1208,0.2755344418052256,0.9716136406934563,42.78276271166504,13.87112891363226,15.293504822479283
1209,0.28087167070217917,0.9797830139081452,33.00856267159243,7.839243078455245,13.596619476515537
1210,0.2808349146110057,1.0079735218895967,50.010067792025595,8.057534823510258,16.534349031861037
1211,0.24707846410684473,0.9781790820165343,42.75809865889847,13.04312010781399,22.050810284185005
1212,0.22056631892697465,0.967158853494208,41.24452558799608,14.30979429195903,17.09375183021062
1213,0.19919246298788695,1.0139129997232756,47.454168439808356,19.312820739991754,39.76512353017496
1214,0.18159509202453986,1.0765448842926404,27.386900854553346,10.471140115559976,29.766650863131787
1215,0.18159509202453986,1.0638297872340134,47.653919590318374,13.888206427707203,23.827134292721222
1216,0.19919246298788695,1.004860603923739,79.07994529503418,15.510858858724825,32.188633692574584
1217,0.22056631892697465,1.0010671273947012,77.75397194876183,17.587243472857946,39.16533135423722
1218,0.24707846410684473,1.0312025367049518,39.148464330626354,17.140320297525776,24.475025539094354
1219,0.28083491461100574,1.034455319487537,39.1559923653328,14.24280144282608,16.080027373221654
1220,0.2764976958525346,1.0135566391789341,42.60198447197022,17.714226582826587,15.722982226911036
1221,0.26666666666666666,1.005932421975791,27.6314230657335,13.775938763526705,18.248192243592893
1222,0.2575107296137339,1.0655378776821613,38.7955926884446,13.5866809344809,23.328405423888572
