time,breath,heart,delta,theta,alpha
65,0.07811877241929056,0.8597834892112822,23.671064794283165,10.005175627045881,58.49938805112123
66,0.07713498622589532,0.9099218879840452,15.465322919923924,10.354616675203339,37.12712901302745
67,0.07617567042363001,0.8996512365250477,29.13846484705221,8.27147003395428,22.845166224490328
68,0.07666751852798365,0.8264462809917356,7.554032503518277,5.815218599618961,17.528791110473577
69,0.08185538881309685,0.8286900663661853,18.917787773237823,15.013177595609012,39.64062347276699
70,0.08779631255487269,0.881897495939873,7.867397743644881,9.975045526829195,39.35630887275043
71,0.09466708740927739,1.0048684557642056,12.370569180138784,6.204610031223235,64.72967368755558
72,0.10270455323519342,0.8624424053873092,2.8149193061685764,8.167986411852416,54.516792992088575
73,0.1122334455667789,0.809776449138483,7.87368879805369,15.257585274812868,29.0101250503874
74,0.12371134020618559,0.8390095075918836,12.472364400213095,6.562423904873506,45.05808489043014
75,0.13780431786862654,0.9227019498607247,13.426168274256588,5.031047961594582,17.938619837722253
76,0.15552099533437014,1.0079819893573476,11.690191088129234,10.275382317963677,61.250059716887876
77,0.1784651992861392,0.9672160042301915,20.88778460734998,16.230512667581305,67.51822207065976
78,0.17513134851138354,0.8107104213433242,6.561135843513762,12.275889272122749,45.49141047732253
79,0.1680672268907563,0.7804605027906901,14.142244782807541,10.061258895440268,16.681016794666025
80,0.16155088852988692,0.8010298955800317,20.273665760867104,8.982283400302645,36.8408331086726
81,0.15552099533437014,0.829996735002492,19.905505479881576,7.271476663505296,35.39172984455621
82,0.14992503748125938,0.8790223556239899,14.145364735804487,8.702812038196749,20.790303605691825
83,0.1447178002894356,0.9224975139115161,8.729010415343101,11.06117360043118,59.215143105046494
84,0.14659685863874347,0.8876703924538425,7.649407212185357,4.4781796742439886,34.21560879622199
85,0.15300546448087432,0.8271284370539783,8.025387290134269,9.1798320850853,33.717618439656896
86,0.16,0.8357513943669315,11.844110107545134,10.63393180505179,45.35632812500664
87,0.16766467065868262,0.8847349633439532,5.034169169116968,5.680454573536724,44.46865184004053
88,0.1761006289308176,0.966736919270596,12.611312771541147,19.81581535627223,51.5829711808112
89,0.18543046357615892,1.003369712819997,14.42218215784045,17.95833709839493,51.56692307729141
90,0.18669314796425024,0.8712525468128435,13.410861726833756,8.973786419785567,36.78189406764637
91,0.17956064947468958,0.8116133289343453,13.089832000643462,9.506389759087547,25.443856768140794
92,0.17295308187672495,0.8447019927700781,17.40254942716985,12.64212769372182,27.494428704637095
93,0.1668145519077196,0.8940607406232651,11.863377607869145,17.464902330845348,42.26420933073752
94,0.1610968294772922,0.8793159083575369,10.374011988133361,20.219302350991416,39.69829913738591
95,0.15575807787903892,0.9564759564759586,18.835152102570806,12.266954085121581,50.3277836186842
96,0.15328994938539406,0.9615384615384615,17.036130083048832,11.081412455871122,44.15657736383391
97,0.15240833932422718,0.8503401360544208,12.191491760985409,5.763856494187641,49.19526141068773
98,0.15153681200857755,0.8446305628504511,8.576388541140942,14.917624255970072,50.03446771308056
99,0.15067519545131486,0.8737789987789992,14.82846723080505,14.974823413946298,58.50689202544177
100,0.14982332155477032,0.8960141433622628,11.186819303023293,17.846334576933785,42.767358857268825
101,0.1489810260014055,0.9081861159492411,18.539935691913225,16.861660753500548,50.238009525193135
102,0.14814814814814814,0.9343936381709744,13.02619323870013,13.702439809539017,43.441219833903375
103,0.15884476534296027,0.9398457155927037,11.841904759041359,15.097471250161075,33.565712807349314
104,0.17120622568093385,0.8160963391776004,15.328900150121635,16.950748111989416,51.26022473388665
105,0.18565400843881855,0.8107172870631271,10.972582564342165,12.312025244608938,46.379912142991586
106,0.20276497695852536,0.8707922538480116,17.70354973456666,22.3941055201967,60.867910141724714
107,0.22335025380710657,0.9644530173601561,12.454002005455036,9.234136051654179,50.30945965612725
108,0.22249690976514214,0.9318808242551484,8.284970421030533,16.949464621535043,39.87887176813364
109,0.20066889632107024,0.8490853932180858,12.272970045710938,19.580217539060204,46.55158314935039
110,0.18274111675126903,0.8249579803107749,15.678369269794153,16.18390063400428,41.661123445588146
111,0.16775396085740912,0.8504956652156425,15.64452677369497,13.017883889929953,37.36414324597154
112,0.1550387596899225,0.8728460412208587,6.970833933934988,10.28903527390527,51.45247071420029
113,0.14411529223378705,0.9688751650220429,6.902772944463356,8.647015834122076,50.25102280574552
114,0.15003990422984836,0.9679926517346141,7.192507664753751,9.429867053830101,58.8565584561139
115,0.1591871295512278,0.8706418772846947,13.746276511328958,14.842992354809303,55.143346141123395
116,0.16952209197475204,0.8296460176991144,4.39118355939229,9.88483493401768,29.10798023696848
117,0.18129218900675026,0.8243532651188091,5.907257651030936,14.538663125154477,60.96759564232902
118,0.19481865284974093,0.8499935745626127,19.802952175805537,14.106713795972531,44.03623347150078
119,0.21052631578947367,0.8817948431744587,11.858030068487277,8.79704265757412,35.47856374166527
120,0.21052631578947367,0.7938175997930591,6.427393357058179,8.502884130356156,56.8461055900626
121,0.21052631578947367,0.8286500261590142,13.711626000269764,14.085229658745074,47.208666505374275
122,0.21052631578947367,0.830083180892555,16.728238795638166,17.31167715637581,58.15328095241439
123,0.21052631578947367,0.8818273638411971,10.480418509118264,9.665999817203845,33.05446223444208
124,0.2089171974522293,0.947122721967861,11.339113545176708,7.365583479844151,48.55084206477775
125,0.20271940667490732,0.9040833433121738,10.069710555395941,9.997143335618608,82.37195718191539
126,0.19687875150060025,0.8237512101499738,11.942591809779607,13.670715201621283,67.44661130044598
127,0.19136522753792298,0.8274828841698177,3.3902242750875984,12.605109071704948,50.73786652158231
128,0.18615209988649262,0.854270453033111,11.596051624670443,16.198228799275295,50.66911460327248
129,0.182883939038687,0.8750737154488566,14.915517304872756,9.567502143988259,46.41052618801323
130,0.19188191881918817,0.8413397265645868,8.678135239896585,11.048134483883551,22.618538067232347
131,0.2018111254851229,0.8177531021104385,17.247128209517424,7.428740272073487,33.24658625638526
132,0.21282401091405184,0.8372692142550476,11.876489949235747,16.128914581629598,20.277141781501147
133,0.2251082251082251,0.9172218672994534,8.500121964635763,8.61044240089531,47.68388392566558
134,0.23376623376623376,1.132792037716086,10.566837133975163,8.01483556601868,41.06298108421788
135,0.22784810126582278,1.1078886310904656,12.817070024891555,12.516723771607536,69.57518377133896
136,0.2222222222222222,0.9009363443229143,6.676942196952405,7.144627195786702,24.132960469921798
137,0.2168674698795181,0.8284755343578905,9.71288383156979,6.262077882357359,35.9506148529348
138,0.21176470588235294,0.8880893770119339,17.402121822587738,8.069588559530773,32.449522820471195
139,0.2018348623853211,0.8624423312305795,26.704056591065363,6.470144634357664,38.398578274959526
140,0.19130434782608693,0.8123408816829656,23.099808968338554,3.709284329176416,19.098603604143353
141,0.18181818181818182,0.8134920634920663,18.68633932735746,9.098650529111834,22.746964616082995
142,0.1732283464566929,0.8478260869565253,16.349722767560355,9.36803548710676,22.05068136541663
143,0.16541353383458648,0.8852016513178824,9.691806302754822,5.582954387185347,62.936355162120975
144,0.16112084063047286,0.9131111293096342,6.968893224357232,5.953681734107074,60.12094802941894
145,0.16576576576576577,0.8771929824561341,19.766195067996197,7.3091183981717,31.418889079071572
146,0.17068645640074212,0.8251631136387371,9.800347024206005,5.838194678173261,12.615494237501888
147,0.17590822179732313,0.8185607392155881,14.967027613525751,7.888315426836905,33.50554812158463
148,0.18145956607495067,0.8495824239254018,13.174997812572155,9.611920342755967,42.38836211139576
149,0.18737270875763745,0.9119754565130697,16.92210912083195,9.104650078268538,45.62163109641227
150,0.19672131147540986,0.9559708440246106,11.436487054504669,11.137644732571733,28.1159728612541
151,0.21052631578947367,0.9064286710361035,7.577188516707528,15.096627662856704,20.007956975530522
152,0.22641509433962262,0.8353519521231179,12.662653978905738,10.261289789723769,16.551286943818262
153,0.24489795918367344,0.8759151352159034,13.166731362953042,11.712851417017532,17.0750963361212
154,0.26666666666666666,0.9472817133443272,8.675257299995558,11.75582385369969,25.379503811483946
155,0.26666666666666666,0.8496080900734768,13.894968790848065,10.919013019994246,20.457646044494965
156,0.26666666666666666,0.8251386573207667,17.686608356578695,13.881592452771033,13.282005583943002
157,0.26666666666666666,0.8796799751437171,8.831173754465366,8.641407605222687,12.960907567036784
158,0.2678983833718245,0.9206635488538797,5.932078106432759,8.356038564380196,14.84291439623998
159,0.27294117647058824,0.8761671044306826,12.70112381265455,10.606438722586937,47.07505595395216
160,0.27817745803357313,0.8848306094826482,14.728552208169415,11.08331016969194,54.77164117203691
161,0.28361858190709044,0.9557674450207211,10.683242172125642,10.217072495549795,30.098190626995965
162,0.27906976744186046,0.9377009729684714,14.615085785818351,5.362751410625301,46.30355779979851
163,0.26905829596412556,0.8463943973184892,9.667951688272229,6.503808446315875,37.87273746909185
164,0.2597402597402597,0.8669822704910485,5.781390082316728,9.332075768127673,43.47244156320238
165,0.2510460251046025,0.9337368793869678,8.27017806708701,10.106433319228197,30.255695213856253
166,0.2618510158013544,0.9037756824638539,9.949045438719049,6.909233104653796,12.59445754731681
167,0.27684964200477324,0.848920863309348,13.11403462831771,9.55206177537836,16.33486373256833
168,0.2936708860759494,0.8800000000000274,13.055757234509796,8.350884284089584,24.62810691303669
169,0.3076923076923077,0.962305986696202,5.9221883003739935,7.341271032510312,25.774088948059592
170,0.3076923076923077,0.8573121505017993,8.962474107862079,13.279192529355337,17.606847301884674
171,0.3076923076923077,0.8733874820831349,11.88561993988101,10.879180677114237,10.330307821873225
172,0.3076923076923077,0.8767386091127106,4.147227557231538,12.281601026270323,11.560019677361474
173,0.3076923076923077,0.8801284407218996,5.473306577434191,19.231143281064263,18.617724422833675
174,0.3076923076923077,0.8713021972795556,10.480210387657648,15.910569768651989,16.587929115646304
175,0.3076923076923077,0.911784818782786,8.117536978601247,6.435397795089228,13.080304472759858
176,0.31347962382445144,0.9129678701556617,11.267274111996871,15.006975119257715,28.571334111666257
177,0.3215434083601286,0.8786627182044988,10.284522860496168,12.142018592571786,16.830979196404925
178,0.33003300330033003,0.9383286870198096,12.325207171453032,9.23187591754421,10.900611494552324
179,0.3046683046683047,0.9930182092649913,8.157269133670779,7.752615956199171,14.90395573655282
180,0.2678185745140389,0.8762075937991333,11.23997595131342,6.550852339540813,14.834729572626593
181,0.23892100192678228,0.826679855860936,10.188649845472845,7.331587679075852,32.06701192843567
182,0.2156521739130435,0.8895023387777172,5.196458344408594,12.580138983724634,27.427789991957347
183,0.21052631578947367,0.929844812107229,9.350178231849558,16.067675058442607,33.79530915253267
184,0.21052631578947367,0.8664715671084888,18.774949554345454,9.582341361064996,35.52937335272727
185,0.21052631578947367,0.8351203863521461,14.444135820784588,10.89616364812951,24.81933960423513
186,0.21052631578947367,0.848193294028292,6.484672317429023,5.947235631366875,29.95186243074086
187,0.21052631578947367,0.8867392180572533,8.349606514747947,9.498347016695107,18.81310380448369
188,0.21052631578947367,0.9356895761263433,9.975492712235196,12.842780471946954,46.29789687587388
189,0.21052631578947367,0.8370191545225487,9.794536930733125,10.247137532625068,23.15702023485308
190,0.21052631578947367,0.8459634187607994,7.685606386127528,11.296789059488615,15.507958212765189
191,0.21052631578947367,0.8474576271186441,9.088025973156839,6.954769995514921,33.483267377641106
192,0.21176470588235294,0.8772265849454232,14.452644719669571,13.17937296650113,17.749879074562966
193,0.2168674698795181,0.8762866873301856,9.982660323422694,6.448462847529807,17.979100562883158
194,0.2222222222222222,0.8409274831990393,5.418248966055314,11.931980557173796,13.255478908896373
195,0.22784810126582278,0.8365786816674006,14.948591274167251,7.443921632236024,15.210741647757363
196,0.23376623376623376,0.9014297094461547,12.198029187730095,4.926548233196222,15.720609063515656
197,0.24060150375939848,0.9576410850296304,9.554651658725264,8.245048188038469,15.979639104641
198,0.24806201550387597,0.911854103343456,13.10454618129123,11.093157536295298,12.603069564858934
199,0.256,0.9049773755656109,12.129669000550429,16.08173321569886,25.61912505969598
200,0.2644628099173554,0.9786289851687706,8.709824141544631,10.04209452266159,12.31380527685813
201,0.26666666666666666,0.9822036370708855,9.52062425948486,16.805942223845385,15.639268341678298
202,0.26666666666666666,0.9008266166436277,9.871192416028444,10.300913745570996,15.178319537581686
203,0.26666666666666666,0.9020514067947912,19.198367522311088,12.417317734582474,17.89851664544818
204,0.26666666666666666,0.9670772256825878,12.050491522460836,3.2293259137592556,30.35251593522683
205,0.25092250922509224,0.928029900826064,11.379481538467326,5.895575171738341,64.11906574222817
206,0.23693379790940766,0.8370760009087237,11.648115927825717,11.234655120916814,19.569807072360376
207,0.22442244224422442,0.8397417295415094,10.04128785420778,10.571858707431286,18.341369385331674
208,0.21316614420062696,0.9007375166243481,14.926415495015227,7.750871170828182,15.96048502751005
209,0.21428571428571427,0.8899773025922809,7.238568310753752,14.421775013545123,17.285013576856795
210,0.21951219512195122,0.8374939603800833,13.259340416686609,7.640804770518493,13.06220368070195
211,0.22499999999999998,0.8250825082508255,6.856836725521401,7.410281615880672,20.482439134194877
212,0.23076923076923078,0.8613617719442288,10.380044660025137,8.26086109738901,13.910122251829602
213,0.23703703703703705,0.9173924072038593,12.316491887558488,6.852847193014323,10.2635600269052
214,0.24427480916030533,0.9005145797598417,9.485830119185337,7.59834609722561,18.77246104186197
215,0.25196850393700787,0.8120295653353307,23.87411851597002,9.150977080133954,20.65136800978187
216,0.2601626016260163,0.861696769086863,5.372731860075351,10.399219683980519,16.066826775843445
217,0.26666666666666666,0.9528793528270397,5.09650866625224,8.555273979242138,12.545884637393343
218,0.26666666666666666,0.8778390429364641,13.454404840682976,7.458427803641863,14.496593401925876
219,0.26666666666666666,0.8533168370874428,15.42751862551143,8.265952675565716,12.35820518823836
220,0.26666666666666666,0.8987720148650964,14.12706396424102,11.551999539930375,9.809457220023301
221,0.26666666666666666,0.9230052712915634,7.801893441063987,6.642023656460114,12.097106670924394
222,0.26666666666666666,0.8780991735537141,8.237081636470181,7.034863802350003,13.090881852462466
223,0.26666666666666666,0.8690073486527583,11.165066140785093,9.95150841199325,16.15192234066928
224,0.26666666666666666,0.9408031464390302,7.479693058453077,9.09811986263258,12.498239043673454
225,0.2703962703962704,0.9553875550386015,13.377215988796886,11.794494829367386,16.2894143355835
226,0.2755344418052256,0.8077544426494111,11.347064282798742,9.264284365779437,14.404300577565163
227,0.28087167070217917,0.8398704694616272,16.0074644255808,12.10847978827257,12.313686147432023
228,0.2857142857142857,0.8648386132695776,7.951660879534888,11.700186369347229,9.691599742998568
229,0.2857142857142857,0.841193861748546,7.610048224135007,16.464997862779214,11.712000423104406
230,0.2857142857142857,0.8233791341572982,8.77702146817793,9.577962911446988,11.430535563039252
231,0.2857142857142857,0.8777257498873521,12.337381364183987,8.899946503169858,15.98565198561784
232,0.2857142857142857,0.9128815480527814,23.476098092322694,11.368773587056685,12.780272792156206
233,0.2857142857142857,0.8672409814629572,19.491411063443824,10.522398879402845,18.061368918110972
234,0.2857142857142857,0.8735946520814367,25.034447481851508,14.817322513628028,14.750095451042403
235,0.286472148541114,0.9412225023911154,9.428039538960183,13.98679217293617,11.761273075155586
236,0.29268292682926833,0.926386874742957,15.263317644844314,15.465677442489119,12.740337426376275
237,0.2991689750692521,0.8968609865470852,7.064508235406254,9.972422731393928,16.723050600624283
238,0.3059490084985836,0.9351963912421761,17.496754803817506,9.715324365417734,15.288089604785023
239,0.3025210084033614,0.9387031189167934,6.412098353415989,10.818165700014902,10.597655914952012
240,0.2958904109589041,0.8590717610051307,12.192635743644814,7.551187608155708,12.681203258690989
241,0.289544235924933,0.8627193067296117,12.198308639842,5.246025814794575,16.109674548234363
242,0.288,0.9452321378926747,11.859218289215862,8.186020254918528,10.19755365924814
243,0.2942779291553133,0.8707472272019734,9.977928362701043,10.540581748358317,16.894056024252468
244,0.3008356545961003,0.8598484146544844,14.983306927186653,5.7704885412464515,13.074340191819843
245,0.3076923076923077,0.9308426241299957,9.58300676357147,13.238606168049849,8.372271221157552
246,0.2892768079800499,0.9349700809574012,6.7699360735479335,13.555562076038127,12.021799942806979
247,0.27294117647058824,0.9128042680893617,14.674484763976675,10.761567716427036,11.787358397779382
248,0.2583518930957684,0.9355008325300235,12.388287537789251,11.774391988936404,12.575922941427221
249,0.2549450549450549,0.9870751789684659,17.834185100065472,11.384951786789195,16.22949620500051
250,0.2691415313225058,0.9575768551636493,20.59827337103237,13.259918810462425,13.255122749955621
251,0.285012285012285,0.9055868700265348,11.614779071753073,10.943643747560008,7.900975861809782
252,0.30287206266318534,0.9565077096826291,13.035692415244778,9.252732802982433,11.613750674128182
253,0.3076923076923077,0.9520057776902174,11.69228567877854,20.10229004253093,13.273310650234734
254,0.3076923076923077,0.8663133761792015,12.514211639754338,13.070125772495352,11.725427805763406
255,0.3076923076923077,0.86985548224946,8.460883254953524,14.42935600956691,16.757882654869036
256,0.3076923076923077,0.9320821410537048,6.011308679739058,13.446240649792635,13.356996487286
257,0.3076923076923077,0.8943304744637013,9.463890433060419,15.416075083779985,15.090536715742342
258,0.3076923076923077,0.9205020920502143,16.985320935843255,11.12135369823149,15.337786947677689
259,0.3076923076923077,0.9745215451450117,10.667773582139334,16.548938592925058,13.954417306950942
260,0.3076923076923077,0.9338985296065588,21.155602223200223,12.949396385336836,13.689003416224573
261,0.3076923076923077,0.9122267475687829,13.600189759315617,9.518949340811027,8.755703231253962
262,0.3076923076923077,0.9490745959106454,15.271374191219229,10.202185673243923,12.43145547023239
263,0.3076923076923077,0.9050319777965252,10.147485383150014,13.836378687732276,11.510996106187147
264,0.3076923076923077,0.8279412787866209,3.775703000907804,10.356891025142195,8.313615884192327
265,0.3076923076923077,0.8762623285787338,8.088712106136553,9.348412136907712,13.363119313584521
266,0.3076923076923077,0.9234988103399461,8.183495484341922,14.162535793148281,14.43887144373928
267,0.3076923076923077,0.8358579406504232,9.037216888487697,14.077047375666433,14.295188741226104
268,0.3076923076923077,0.8911139891365426,9.43745404286208,12.363767985072196,17.153665531762144
