time,breath,heart,delta,theta,alpha
85,0.07176826632079551,1.243262981085226,105.40264098119296,18.446532633283297,104.97389456865925
86,0.08189442525900348,1.2851858375902765,107.58113321847651,16.311290631461453,134.1734610650297
87,0.0953475014359564,1.2739787076008913,99.6469061495248,25.382767738808592,115.31231533759886
88,0.1140893470790379,1.2581223066866798,55.66256267145938,36.655726216739616,174.50265577488452
89,0.1420017108639865,1.3789511069018587,79.27603233021367,42.447469294698706,120.70269500914662
90,0.17424975798644723,1.4345000784806152,44.515881894867135,52.181485745403926,129.31760166380724
91,0.17560975609756097,1.358021851638873,67.83062346703656,45.25204995135316,147.11445993559497
92,0.17699115044247787,1.322919920858065,124.28601548518436,53.85150761305306,70.27487807028771
93,0.178394449950446,1.068587682830357,86.13955161065934,38.12633271038277,44.5948924703831
94,0.17982017982017984,0.9258037594881374,53.75015800109923,32.42786258199775,43.140150036355955
95,0.18126888217522658,1.0250125630177178,62.8333296151206,35.07693079128039,74.75878930793749
96,0.1838074398249453,1.1212255686970616,96.08006272710466,34.76603406426628,167.71671215071024
97,0.1870824053452116,1.2169105252511632,115.18916392095682,24.413988188858703,196.35782350972966
98,0.19047619047619047,1.2796524400780036,85.58454664403607,23.930223130132728,152.99051327537148
99,0.19399538106235564,1.1881276170007782,138.0182613197894,50.70438646975608,237.09741289840065
100,0.19764705882352943,0.884263844832558,110.7786291772666,43.115633492994306,219.1525639289735
101,0.20159151193633953,0.9933415989346559,62.0368860774254,29.327656339784312,117.66393304218195
102,0.2059620596205962,1.0282869427472279,34.87064800265057,33.28102817983773,105.03001036531373
103,0.21052631578947367,1.0389255322784594,147.76916943691452,28.16997838343204,117.13032649669216
104,0.2152974504249292,1.087530432766359,155.71157991741032,31.99300565431924,151.15572347393046
105,0.22028985507246376,0.9142857142857143,74.59215972638583,32.951821215156315,171.01289251898143
106,0.22056631892697465,1.0625098299634763,48.51257469381243,40.06796044018448,134.79122029994562
107,0.21796759941089838,1.101561338289963,114.5118488877798,33.97976488242815,175.64363775547628
108,0.21542940320232895,1.1100765880762877,175.17305388155512,29.405943778963554,120.40992666626387
109,0.2129496402877698,1.0919122985334688,118.63596343893018,26.678761042127594,235.8988741016654
110,0.21052631578947367,1.0869753353526612,72.54783068420032,36.63816014021886,143.97878123606174
111,0.2129496402877698,1.121840136249689,84.8441457856992,35.46168284908333,141.29965934328618
112,0.21542940320232895,1.0042796005706134,60.02562672104733,55.17468705333785,211.95914881931427
113,0.21796759941089838,1.0284126783684808,57.71064761863113,36.67296762231669,131.59095056055662
114,0.22056631892697465,1.0227577840679336,102.03501665635936,26.084087047332922,159.96693320895253
115,0.21779548472775562,0.9642703400774861,83.64334134019683,26.504325075118597,114.25070582917742
116,0.2068095838587642,1.0592519033432637,79.2023448072238,32.85267991981351,291.10942922636104
117,0.19687875150060025,1.1169157066271245,69.6182199722385,32.570497275213896,247.85349351824644
118,0.18785796105383734,1.0962431327574407,52.46941411329787,29.268603560971712,197.35644888819368
119,0.1796276013143483,1.1486808466234195,59.60405840641288,30.357135745917482,209.4128249178658
120,0.1762114537444934,0.8720303026247106,79.42234493611392,26.20199466227592,188.248588913888
121,0.18604651162790697,1.1896609075077778,103.99443974301579,31.72770168650634,142.38783651547527
122,0.19704433497536944,0.9985281130409184,71.95971346684482,37.12712774043666,109.31759931266865
123,0.20942408376963348,1.1285551763367463,69.58212966615042,37.99650823262387,115.4811126709994
124,0.223463687150838,0.9298031228784792,56.858863446578496,38.07268451102387,154.86162164289925
125,0.23179791976225855,1.0267668665034198,100.9452052482517,27.16020452719579,173.15213105969724
126,0.21879382889200563,1.1582293959403276,53.95074093395864,21.668046118275296,109.26311957054213
127,0.20717131474103587,1.2005055320281148,68.44330000437913,33.762163307196325,161.69620407281724
128,0.19672131147540986,1.0154497083146354,73.89181540235097,52.2010631760165,211.31105413388082
129,0.1872749099639856,0.9157808667211774,113.29357144147787,55.282495163814716,149.36628359990613
130,0.1830065359477124,0.9444444444444444,72.51425895940032,26.727547347298966,84.51404781824719
131,0.1862527716186253,1.0248215338267077,25.1102019259084,37.10916810930556,119.51171706088779
132,0.18961625282167044,1.0608277485036066,92.25831904338065,38.28375385626443,86.3189554885674
133,0.19310344827586207,0.9592531143668624,50.10551441304198,37.282550920201174,91.88132555954388
134,0.19672131147540986,1.0608707614003714,114.42620097953794,36.24080676615668,256.71469743937115
135,0.2,1.071667782987274,127.44530928447354,37.57524754090838,310.6874289738431
136,0.2,0.9862473681852798,102.08104167103184,30.60146233996375,288.03133194559643
137,0.2,1.0221415607985482,71.41421369798792,39.4448759899236,285.1873791838992
138,0.2,1.1414044625222441,25.135773307127025,29.357622085649663,263.76407747533483
139,0.2,1.0619469026548674,56.15117368185882,41.313727954400875,199.14750592826644
140,0.19757688723205966,0.9514496873223421,53.139325684171894,38.54381441398519,97.88270657125852
141,0.18011894647408666,1.1002992199526092,89.38642496630936,35.54613964540059,93.00134030293636
142,0.16549570647931303,1.1991988111391096,48.771073488001456,24.83227742316688,89.47357092519351
143,0.15306859205776174,1.075407749224282,87.89196502307072,40.83576147749645,177.06252053339315
144,0.14237743451981194,0.8711775952670121,53.000191779866654,29.82665570562364,79.1977199166997
145,0.13308223477715003,0.9406754352935067,119.52109919167555,36.927570778747345,126.76752555502443
146,0.1249263406010607,1.014192255733823,68.02836165693041,28.0498298820158,92.07585989849812
147,0.1249263406010607,1.0479655970889845,69.15501062189368,41.711920067808826,65.9167963559498
148,0.13308223477715003,1.084629165173773,42.83735890287449,42.728438848050885,90.61638817990772
149,0.14237743451981194,1.094393756814139,51.07185372534794,53.214555616983816,93.56994685847371
150,0.15306859205776174,1.146875354428944,91.21918707972239,37.56135252488258,92.47748144074814
151,0.16549570647931303,0.9740342724368284,106.9791290192716,36.01441213618834,201.1701001841139
152,0.18011894647408666,0.9846153846153847,24.184460510627552,48.177853731244085,128.98336984468477
153,0.19757688723205966,0.989566914358628,63.65461781580987,57.041066860141505,86.60628783669453
154,0.20584144645340752,1.0254230360500287,70.98877210554886,68.0460973019521,81.5312761265825
155,0.2129496402877698,1.0273796426855912,85.42476191136004,60.48198874266478,69.15916465432267
156,0.22056631892697465,0.9268410204245522,56.58338409516895,58.627235048365094,68.72274447921134
157,0.22874806800618236,1.0003699593044766,33.670721211177124,44.74002110695223,53.40292192263428
158,0.2324159021406728,1.0757885057471266,63.164269550226365,33.83338390197175,52.49660515139435
159,0.2215743440233236,1.1093627923033595,87.16595834114644,49.70431897383878,77.24942869489325
160,0.2116991643454039,1.0297211390372578,79.26322499930382,40.15798028481939,80.56327004457904
161,0.20266666666666666,1.0419880034275921,109.68327430849344,33.421101178367145,59.51821432310169
162,0.19437340153452687,0.9756778773420226,51.94511004339836,36.58640703789194,67.61766446771871
163,0.19136522753792298,1.0574900996859211,70.5723832592419,32.21125403849749,83.05945433279834
164,0.19316843345111898,1.0463625071339846,57.22589458553791,41.92550910864403,76.16579574806539
165,0.19500594530321047,1.0875802122402545,54.243573291546255,40.37943858174557,59.684811202232595
166,0.19687875150060025,0.9211724110151855,45.56430509817531,34.403332470648984,63.55822988845483
167,0.1987878787878788,0.9646046051623507,132.7199992843873,29.184883195622444,120.38819964409873
168,0.19730941704035873,1.0385783264473094,76.18940195688019,8.511276122003713,99.09100238738745
169,0.19047619047619047,1.1221159047246003,69.70869113917456,17.795924139030227,59.7265515727297
170,0.18410041841004185,1.3591699231909447,86.39996752936233,32.388643026044,102.671016692187
171,0.17813765182186236,1.0620621328992994,139.3378346598694,34.4450680642523,78.82738086146892
172,0.17254901960784313,1.1639175031298734,110.74042110591887,31.7439697177865,89.43944753137907
173,0.16730038022813687,1.2001442481067435,141.7688477150324,20.387600267012935,42.4114457070134
174,0.16997167138810196,1.0134044054244729,106.64951423311109,25.793884425549273,101.04497812574503
175,0.17391304347826086,1.0587189828422996,126.19084387914717,16.210066617052625,147.23136210379863
176,0.17804154302670622,1.1052553223165102,43.26876343597566,22.965107238664423,114.75913193263492
177,0.182370820668693,1.062722388892765,63.61970588964655,21.955818334220886,101.62206653832547
178,0.1869158878504673,1.0056116722783388,77.41081531721616,29.09657507221487,249.97170964512281
179,0.1909196740395809,1.1151083062037357,98.30025050851839,24.68727777459013,218.283903034187
180,0.19271445358401879,1.085427135678392,72.3393954995781,32.56414755888173,253.85931729240275
181,0.1945432977461447,1.2408759124087592,78.96034339276173,19.953352083437075,93.18969762344932
182,0.19640718562874251,1.0933688836221795,39.335032763079546,27.9524925595493,234.01734160957383
183,0.19830713422007254,0.8965115491431281,88.71125294194348,24.76387205537302,102.50384644726071
184,0.20081411126187246,1.1569162612238442,109.10227480902708,34.498275434678824,199.40345317577942
185,0.20757363253856942,1.1114291239605494,78.95740154464549,51.86741779474621,144.6140257519114
186,0.21480406386066764,1.2192411493887918,159.14722737817146,53.840920187289626,202.7624335509538
187,0.22255639097744362,1.370487302676733,95.57995258029192,51.516649197544986,160.4224864725808
188,0.23088923556942278,1.0495658396023904,50.287093952330316,35.92874247331605,154.05520448953956
189,0.2337228714524207,1.2069751178686638,45.50185839208548,35.2926674587692,108.63152117991976
190,0.23064250411861617,1.2446248613438438,77.43846931169816,27.56717806968589,100.84908426811727
191,0.22764227642276422,1.1766054558964016,75.66550442869453,46.80229268760113,137.44475029195394
192,0.2247191011235955,1.054489559765807,11.414417803187748,34.99915796305254,124.28355785524144
193,0.22257551669316375,1.083507490209164,65.054922173096,28.666796641566645,143.4378233309689
194,0.22544283413848631,1.1461780228903518,64.24857649629335,28.03763577162475,195.21028047273714
195,0.22838499184339311,1.1378796014557604,32.341601184716396,25.752209446639814,116.02736358373627
196,0.23140495867768596,1.0662533901588531,96.58039950124774,48.12179931707123,198.41403105310528
197,0.23450586264656617,0.9388753056234718,119.90485244106718,33.90632845897717,157.9896122051109
198,0.22874806800618236,1.260473244226137,36.24196348712553,29.144277655602206,186.66141570196572
199,0.22056631892697465,1.2264111643407622,47.4562817443587,49.339978932314665,109.94824407326826
200,0.2129496402877698,0.9868943128531923,96.7065610979476,49.90492040360915,259.4367826514927
201,0.20584144645340752,0.9429161683157551,73.7425764384731,26.982127131693275,166.56149404985547
202,0.19870410367170627,1.0910941475826972,28.69575968124878,38.60646434691901,165.5561664440368
203,0.188911704312115,1.0769963486267662,71.46326476628961,47.91201282141914,141.91476128396795
204,0.18003913894324852,1.0877662459769284,67.60440933273428,22.937744740251706,143.94139977290098
205,0.17196261682242991,0.9605025885637833,55.89341713680315,24.81528364684371,128.10593665280638
206,0.16457960644007155,1.1239383906722327,48.20415370490716,39.55104729888442,91.4638990628522
207,0.15780445969125215,0.9657253718473809,74.43257211487649,30.01799148924897,49.18354839152956
208,0.15819209039548024,1.113548004672327,56.10693820432479,32.21605478222713,42.49528863481535
209,0.1710794297352342,1.0540694365395562,47.99048817991186,77.37081821186803,61.85105662064371
210,0.1862527716186253,1.0569204737732656,102.6501903599857,39.615679602280665,52.56072530719081
211,0.2043795620437956,0.9406938984788924,37.46918333580287,31.43455936187121,54.62346046536035
212,0.22641509433962262,1.2360830117843362,62.706008963075355,32.81562071426127,59.26130476248623
213,0.24866785079928952,1.0096986939092203,33.837161161151876,41.56955821247057,45.888101819672634
214,0.23850085178875638,1.1072956520100266,65.86926631718018,32.9903497229107,57.65693690077853
215,0.2291325695581015,1.0704872969596002,75.8357582550525,17.470223712223518,54.04500882966864
216,0.2204724409448819,0.9164408253816192,63.9895702801722,46.876247784162096,48.533624090889695
217,0.212443095599393,0.8932757557063542,76.63936994721047,43.35559836598891,44.00818900353669
218,0.21428571428571427,1.024,50.13185555137896,33.847539617183635,61.820106314821814
219,0.21951219512195122,1.03582311911695,67.67478765807594,36.96758880938034,46.25753218018495
220,0.22499999999999998,1.0726256983240223,37.71575776159622,46.179812490812466,58.9099942914
221,0.23076923076923078,0.9363381092951256,56.99004435989674,46.117124224398665,56.310891933050186
222,0.23450586264656617,1.1326779908816345,36.700331460728734,40.33529572558108,71.69136831868828
223,0.23140495867768596,1.080168776371308,29.804497154390138,20.956906085982336,57.27345421200339
224,0.22838499184339317,1.0432667816941912,45.154326557496276,21.289731950448086,69.35996304072812
225,0.22544283413848631,1.0408589223396618,31.003928799762967,39.65453232678111,117.29691803703628
226,0.22257551669316375,1.1627016004449113,34.344850926699856,56.38402853913397,71.13239842632693
227,0.23036649214659685,1.0910306406685237,66.73037270492028,37.95912413619221,57.136984851550885
228,0.24043715846994534,0.95886329781139,89.34852969294798,25.160698269297676,167.80747663294144
229,0.2514285714285714,0.9140637974424815,44.9990266872542,22.738808338836577,182.96726896710078
230,0.2634730538922156,1.1051481388600293,52.790607082639866,45.184730670948035,214.13249160401978
231,0.2632696390658174,1.1680085882984432,72.47688680462386,35.70819159683566,111.24110826720934
232,0.2588726513569937,0.9214414263591848,118.8394410410014,21.18065830025803,121.43785590832731
233,0.2546201232032854,0.9497256175282768,67.54226797024049,15.780663276641215,193.41242990789524
234,0.2505050505050505,1.0074410469629789,62.420794833220825,27.960044792699918,89.47501128228882
235,0.25,1.0320407998057153,38.10961995074547,24.48505172868095,134.17612220681394
236,0.25,0.9913723580699645,78.5097408073438,33.39887850277345,218.468488519024
237,0.25,0.979845142781868,42.10175406293877,39.88376342639105,232.2341635320299
238,0.25,0.9362428379861026,68.90851304182088,31.41153483019121,78.08448650297007
239,0.2575107296137339,0.9922041941140928,45.68546232672526,29.144562944025918,115.96115055435578
240,0.26666666666666666,1.105487548260782,56.37002137656879,31.246143749739304,130.0447095062624
241,0.2764976958525346,0.9552098758191974,41.585078966043746,31.26917434967444,164.59270728277775
242,0.2857142857142857,0.992479885519034,38.56988501855645,29.070595137447675,120.57010405493037
243,0.2857142857142857,1.1684372072628704,71.9703529778728,27.434787905001844,192.47369364093362
244,0.2857142857142857,0.997522600121409,55.59166500479897,34.178225162398384,349.0352261705417
245,0.2857142857142857,1.2188997391884515,88.05352245071325,37.07506776585822,259.91097798219005
246,0.2822384428223844,0.9982525402886545,81.58086849297263,32.462654048360164,95.59776270165105
247,0.27684964200477324,1.1495745817748366,92.90093218815132,33.730520802461406,125.26467203497926
248,0.2716627634660422,1.077740037315218,114.36071658656748,25.090651151544723,235.54846140305554
249,0.26666666666666666,0.8613279797754481,76.95027455904193,29.928499063767063,80.32121467826875
250,0.26215644820295986,1.0769380410465907,29.57410863249256,19.224670966098202,73.8563515103484
251,0.2577962577962578,0.9063455605539624,39.103923400574025,22.311226682006748,74.75159887277188
252,0.25357873210633947,1.098487944421741,32.61593813159148,28.49821084240554,76.780068069288
253,0.2495274102079395,1.0012611855143836,27.824574669512455,22.119262011450616,87.04235172773026
254,0.24581005586592178,0.9984101748807631,26.85206990712881,14.568462173265816,52.80086868332947
255,0.2422018348623853,1.1936661590136233,48.835291434168454,17.20359989947103,84.35086061626693
256,0.23869801084990958,1.172310969116081,103.2533805253347,31.478313264314092,159.38941000923955
257,0.23529411764705882,1.2018642719108787,83.34897917454617,31.369899980137117,115.5863902953972
258,0.22929936305732487,1.009646094783366,68.61629678028555,48.169528591964216,88.0916967788074
259,0.2236024844720497,0.9167232997020232,82.49262721553787,44.50011161231114,124.39831560739792
260,0.2181818181818182,1.03261242705115,96.91527224119173,50.90836777466168,66.8249053515283
261,0.21301775147928992,1.0938766527902584,46.41527176189539,36.29111073398275,107.73066627042715
262,0.21052631578947367,1.097323734681541,70.19501446222789,15.546940026823295,68.21907042753047
263,0.21052631578947367,1.1783719645670097,30.76681854518307,53.92064212788618,133.02317050747993
264,0.21052631578947367,1.20040192028581,36.95992206284109,26.51777059764222,121.23005937966684
265,0.21052631578947367,1.0882547209755271,65.58978624186697,67.39743051463802,56.201720454654314
266,0.21052631578947367,0.9267394772364707,59.28294861790421,58.36989299627783,52.51598849239481
267,0.21864951768488747,1.0848621392554447,54.713016502601846,38.86726004793305,64.89820319887401
268,0.23050847457627122,1.0613380027810682,96.58682275501059,44.80738856261825,54.14207880907782
269,0.24372759856630827,0.9493329033818372,45.650916828324284,44.002358413816296,41.53781130431374
270,0.2585551330798479,0.9946956872228941,50.83167713840112,51.183248540921845,49.298174884316495
271,0.26666666666666666,1.2776827919139093,100.51869561445515,57.19781494984372,52.73414784321075
272,0.26666666666666666,1.1211606729433554,43.12295199099682,70.98077175183518,62.95977978290736
273,0.26666666666666666,0.9485727493354906,67.00707807158597,37.36469407365145,47.959642743873616
274,0.26666666666666666,1.132784030732224,60.34547354162663,39.50239415115834,26.6819387389322
275,0.2573099415204678,0.8859893388495504,47.866044000500416,40.344388147201535,46.960390287786524
276,0.24581005586592178,1.2289034866093986,35.80283239519064,51.48713372596547,64.0496449324477
277,0.23529411764705882,0.9429508404492958,57.96368627785024,51.09099790249178,46.01341040765411
278,0.22564102564102564,1.095905100194357,97.58346526086413,56.57273773181146,49.40303368032055
279,0.224,1.158240905284229,70.06569629348125,48.85977349679161,68.75223956927667
280,0.22690437601296595,1.1011262436659317,74.30601794503112,64.80766767370652,61.2098421643447
281,0.2298850574712644,0.9294956429891734,78.26432732946505,64.27541158111862,69.76139114431584
282,0.2329450915141431,1.2134556574923547,100.31423727734524,65.55800378783793,52.213238195501916
283,0.23376623376623376,1.1595929511044925,272.07974890555215,64.19143366798306,92.3819157871791
284,0.22784810126582278,1.2593697377916766,197.12499575540252,43.8220312247483,111.83415449415533
285,0.2222222222222222,1.513158318569818,85.3695342578934,35.9993085913616,70.12392147380373
286,0.2168674698795181,1.2332396627860296,132.98712752149873,28.62033308108154,98.7477769081064
287,0.21176470588235294,1.0704477406476924,83.37999133746021,31.39836316406279,93.5500762191918
288,0.21052631578947367,0.867220786477614,35.248704796248376,38.78128291828699,72.70805220021829
289,0.21052631578947367,1.012325184407937,63.8188287022147,36.35768485596316,97.14619749498522
290,0.21052631578947367,1.0520726975699408,107.43436398179236,23.74773010420035,88.91933632035808
