time,breath,heart,delta,theta,alpha
70,0.3025210084033614,1.063332239512271,69.41839083207701,13.069621862581634,16.13661284825595
71,0.2958904109589041,1.1252428832839707,59.82541196265068,12.188125769820338,15.864674248061037
72,0.289544235924933,1.147775264706471,64.23604845609793,7.3236083074901135,14.181363358693623
73,0.28361858190709044,1.1116653806815124,66.94293606214072,11.336807984942574,18.663043887377928
74,0.27817745803357313,1.010347980940463,40.23780847600266,14.339484202698436,14.427339563664667
75,0.27294117647058824,1.0996358203380334,48.13671536521792,15.880748517527483,13.13621228239904
76,0.2678983833718245,1.1326769807782466,34.45510234330237,12.08887640212426,42.575520714400795
77,0.2601626016260163,1.058281377066956,66.55345194869426,12.41143312006686,13.609159680320227
78,0.25196850393700787,1.0099800399201597,64.98597146936062,14.97680247508856,15.942549906250518
79,0.24427480916030533,1.0187341772151899,5.61741209922628,6.30475221371981,13.366399549863093
80,0.23703703703703705,0.9659073145082212,22.501596638986705,9.732234059881321,20.787998612772313
81,0.23783783783783785,0.9477053256226048,14.637941204305902,7.958126493356739,15.379073640949525
82,0.24131627056672764,0.9674524932133161,24.00792471413994,10.71215730628024,17.048519759640694
83,0.2448979591836735,0.96326207889758,8.810508958163268,6.029708102537871,9.488776920225087
84,0.24858757062146894,0.9516728624535316,22.20555190455123,9.3420237954453,9.134841635254347
85,0.24765478424015008,0.9507482843204808,13.946980249042982,14.65818226642972,12.578485280262036
86,0.24399260628465802,0.9519043647484015,11.126357028062435,6.537598027882198,10.657513565756604
87,0.24043715846994534,0.9654134056787353,14.03704982235961,11.221936762072097,14.322084786319424
88,0.236983842010772,0.9619175185054635,14.317047396354727,7.536356139019604,10.142979558991357
89,0.23529411764705882,0.9581186196880194,35.66070141894133,9.638171189583808,12.352126058500213
90,0.23529411764705882,0.9546097466889547,21.117906695298338,7.336806662378582,9.382147502579741
91,0.23529411764705882,1.0111928761362934,23.848091593843357,5.9534755728445425,12.473094755908539
92,0.23529411764705882,0.9900449862139021,15.43706235345051,9.044030949831889,14.496224054669284
93,0.23613595706618964,0.9312331085692446,23.34760553198956,10.159237833415279,11.832704117927467
94,0.23956442831215974,0.9469897508993416,18.55868121844356,7.46524720740231,8.510898262247009
95,0.24309392265193372,0.9912565575818136,27.448485483478194,6.921971763272073,10.109380843177016
96,0.24672897196261684,0.9759101505798865,23.741762610387298,9.072409019603834,11.335541435484547
97,0.25531914893617025,0.9578488986597894,21.31439173218201,10.549655295280925,10.825933204694792
98,0.3076923076923077,0.9920132520854287,11.406168058249971,7.520261048994955,12.36356690266102
99,0.3870967741935484,1.0758512076963898,24.1064149599599,4.980439637945825,13.144166202627765
100,0.5042016806722689,1.0367587872283337,15.51428507707499,9.152642407475419,11.777963218406889
101,0.5405405405405405,1.0130165550360168,24.634661888742222,11.651300512643253,12.3006084643258
102,0.5314685314685315,1.023511644543359,11.263823949343003,5.261824785065841,10.005774854360597
103,0.41530054644808745,1.0490758867836878,24.677876961899642,8.86651841656371,12.515314358256019
104,0.34080717488789236,0.9962452305306843,12.545441665044681,8.549132286645118,11.224955165552952
105,0.32573289902280134,1.0037831794023495,19.389018089753485,11.908146839265227,13.088627515435547
106,0.31746031746031744,0.9949300878102947,14.636928203148248,7.093051840447024,9.285388575934093
107,0.30959752321981426,0.9321706752816525,19.008397479525758,3.9417136589315964,16.08778770418253
108,0.2936708860759493,0.9309090909090909,14.883707167112266,9.494716766625782,15.51255323609895
109,0.27684964200477324,0.9640332001229635,17.47486836274547,5.661853881700701,10.415931822010554
110,0.2618510158013544,0.9491863720788402,13.973915871707591,5.876478638191976,12.175165491750032
111,0.25162689804772237,0.9241634614122373,12.124496302035906,9.58220606918291,11.437396792217324
112,0.2654462242562929,0.9382360009613074,23.295336437232677,10.89269347744453,14.042145408310411
113,0.28087167070217917,0.9909236518953549,18.288657670593793,7.551311334468573,14.009323349802823
114,0.2982005141388175,0.9860265137943388,8.042022411823442,9.454547646531909,13.019305435371077
115,0.2982005141388175,0.9586600342860355,13.08676239397112,10.281106602201454,11.154656560394272
116,0.28087167070217917,0.9973023886670184,21.418956003224118,4.936702942780073,12.79755811513939
117,0.2654462242562929,1.0037665946279717,26.781608835611703,9.678050454497644,16.618233714179368
118,0.25162689804772237,0.9868239278658328,24.62892080194333,10.035707615250265,14.09662242873441
119,0.25357873210633947,0.9715860715471087,22.596142145923796,8.93823605282947,13.10894789453054
120,0.2577962577962578,0.9867611522096869,10.696277897787905,8.53526142479189,11.21137339643182
121,0.26215644820295986,0.9794625972997933,21.108834418361752,9.562231511663132,15.880341900642225
122,0.26666666666666666,0.9448552945182159,19.707581733728393,9.938404582882697,10.115810056516464
123,0.2716627634660422,0.9576642335766423,23.738836923437457,8.563242884996566,13.816700695152639
124,0.27684964200477324,0.9815489481725233,13.828378036518913,6.32883819781107,17.639799608056435
125,0.2822384428223844,0.9770992366412213,11.601425158098287,8.60853987200688,14.414530848858009
126,0.288,0.9853762929497086,21.21660396719728,9.586442395127122,12.413699139838805
127,0.2942779291553133,1.0253090814939478,15.569580845716578,6.684708240673135,14.111608242201312
128,0.3008356545961003,1.0600776851867695,12.391571940746095,7.775187738125066,10.413446996615022
129,0.3076923076923077,1.029440739006153,14.55303715224269,6.887355233634745,9.959614817750708
130,0.31545741324921134,1.0339256865912763,15.057458344268783,9.32879714096606,11.662695828078862
131,0.3236245954692557,1.031051058854099,14.699674671718803,6.8336100031010165,10.231825890451141
132,0.33222591362126247,0.9952500529452698,14.587369089850327,9.654252504551351,9.889085718794608
133,0.32573289902280134,1.0010998411340584,26.923898794838227,8.164565689142808,10.905397825629397
134,0.31746031746031744,1.0093789370538004,13.182228148634138,8.666309653057207,10.795698546523457
135,0.30959752321981426,0.9852286883787151,12.946622241497728,5.697072562529236,11.095228889705465
136,0.3076923076923077,0.9935018050541515,20.660884318408964,9.920766658722457,12.470668681467552
137,0.3076923076923077,1.0290585044556373,9.821040404020987,5.203704064245989,10.315035939481977
138,0.3076923076923077,1.0219071341891806,19.21869329348251,9.032148108184611,8.536038080732784
139,0.3076923076923077,1.0078740157480315,11.742824548711612,11.380658058404318,12.322604352859338
140,0.3076923076923077,1.0373178223645514,15.794615311396628,7.469829325239842,10.587191912751468
141,0.3076923076923077,1.0333737267874104,18.244886550052318,7.02663361753762,9.395690366824859
142,0.3076923076923077,1.0253616803114536,13.085113890521992,11.993433156549536,7.50776361683728
143,0.3076923076923077,1.0519077568134172,14.59794547657971,7.734381298516657,9.198376220234124
144,0.3076923076923077,1.0364715019913076,20.7941019139285,11.735567028869097,10.379180491413342
145,0.3076923076923077,1.0033305965640635,20.513373150108073,7.343860686228074,13.449163046584427
146,0.31545741324921134,1.02744111229674,21.289507154260924,9.99759197049022,16.002529185611298
147,0.3236245954692557,1.0263293753226639,16.3980790548759,12.856284997232649,16.224501856965453
148,0.33222591362126247,0.991494532199271,19.087175569758443,9.50545916434637,10.609311498052266
149,0.32573289902280134,1.0068077276908924,16.158881519180454,10.893994104681907,11.412327552871767
150,0.31746031746031744,1.0288629690834123,18.269995485920887,10.240736640864483,9.976194420840894
151,0.30959752321981426,0.9884844714842743,19.346710551194054,5.820004724127726,12.182506891175683
152,0.3076923076923077,1.0102464691221267,20.77128408841124,7.900689173649448,13.610718896005995
153,0.3076923076923077,1.0447604002106372,12.002157908919774,13.204452010816773,10.734960460861988
154,0.3076923076923077,1.0262935791728884,9.310464239326496,8.277244176211305,11.388937067023317
155,0.3076923076923077,0.971268601738618,19.268959041839928,10.40131959091313,13.886591750134208
156,0.3076923076923077,1.0067874333783804,14.654738139548343,11.480562855265195,11.284281900811408
157,0.3076923076923077,1.0047126809746751,19.82768075724671,11.901499747163967,13.308323221621189
158,0.3076923076923077,0.9638637642272904,10.108189332784848,7.054148293058789,8.454782895404263
159,0.3076923076923077,1.015187310158623,17.97591640589631,8.962957941744145,8.923273013664513
160,0.3076923076923077,1.024,15.374529875480826,8.324099935899994,6.7461722036546
161,0.3076923076923077,0.9918704137868039,21.10367372007693,7.101293852081522,8.428443868346339
162,0.3076923076923077,1.0023003915235904,12.49435479710845,7.335276144286402,12.245860170504187
163,0.3076923076923077,1.0221378874130298,10.445664571096483,6.8477779431699695,13.519588748551483
164,0.3076923076923077,0.981136595005689,16.844580388503548,8.049019043890615,11.978880362617108
165,0.3025210084033614,0.9770992366412213,21.32491786588878,10.294389749696116,10.063603442374106
166,0.2958904109589041,1.0040741866828824,21.31812589038018,5.925984475238435,14.303744407402721
167,0.289544235924933,1.000919963201472,11.588555789436864,9.20068923697752,11.760082132595802
168,0.288,0.9799586166124742,13.070184798825796,8.130497789630356,8.60347753144478
169,0.2942779291553133,1.0177029629169514,14.540992387654747,8.423707194189445,12.025222607599622
170,0.3008356545961003,1.002786895398526,23.592405988075143,5.684042060127803,9.021556097948118
171,0.3076923076923077,0.9551154740963514,7.657218635619125,6.96111757081265,11.659783549776996
172,0.3076923076923077,0.9812480074196446,12.763201577336527,6.743557708844391,13.567227853858505
173,0.3076923076923077,0.9946838150027862,6.685456602450603,5.887328703250792,12.594173367969486
174,0.3076923076923077,0.9837826609493004,11.146723397213835,9.57302002885563,8.270868846456256
175,0.31347962382445144,0.9749829197738142,33.61685348234799,9.452807388317922,11.438427558219509
176,0.3215434083601286,0.9997884876869618,9.197432714075276,8.312421059201107,8.813997171068678
177,0.33003300330033003,0.989948841408366,16.169582027140958,5.827147319501661,12.563271957292526
178,0.3333333333333333,1.0022545853391018,21.54928067367733,8.757219826849045,12.109793206124863
179,0.3333333333333333,1.0332579916047788,11.408353790560824,5.2381514716486475,12.38974512441058
180,0.3333333333333333,0.9839030566105986,15.802681475969374,9.151685075214289,8.847920563835963
181,0.3185840707964602,0.9696969696969697,11.169115233654896,7.562824536459484,11.558116765874406
182,0.2975206611570248,1.0101332678253394,11.45759455308222,10.00113142913075,11.996539336448597
183,0.27906976744186046,0.9826741546182339,15.916443105740544,6.6129984149665475,12.93228250719935
184,0.2678983833718245,0.9393346379647749,10.924454242794184,8.802369878158892,13.209299744356645
185,0.27294117647058824,0.9549071618037135,14.700350200751771,6.222777860154027,10.254624506789465
186,0.27817745803357313,0.986158760203478,18.5276201887985,9.022607397369004,11.01990248499255
187,0.28361858190709044,0.9730592348648609,9.038764190001416,7.807463174541869,10.600694122257991
188,0.2937853107344633,0.9693360437483894,23.83576727588044,14.771736412471745,11.75922037489135
189,0.3076923076923077,1.010045888627062,23.86691829025699,5.156966192376076,13.965845242481285
190,0.32298136645962733,1.014896199498731,14.821598816809608,11.059661176915895,12.48530345880115
191,0.32704402515723274,0.9909380063613996,19.38218802108018,6.850159258423375,11.187549844437328
192,0.31137724550898205,1.021794221996959,39.51980996621666,8.078788905748553,10.098450842532568
193,0.29714285714285715,1.0234081495039014,20.5498942935915,9.732475717522295,8.897446579735853
194,0.286472148541114,1.0004741728742523,23.92571802144672,8.803370967642008,11.759926713612295
195,0.29268292682926833,1.029474089770757,16.29143329711622,7.219794204629824,11.420513205546648
196,0.2991689750692521,1.0321232697832332,21.1869588512394,8.105820987429667,9.70308460876531
197,0.3059490084985836,1.01,22.17155214668149,9.753094216794839,11.779240054306703
198,0.31347962382445144,1.015156502249181,18.29999760634184,4.012264322193118,11.350838436807084
199,0.3215434083601286,1.0443802130646627,15.925711368842697,6.688257355276774,11.77016389965644
200,0.33003300330033003,1.0151450002388802,24.00551399729511,7.157604377052,9.613272660418197
201,0.3146067415730337,1.0008875286916603,8.193755183009117,4.743031840352705,11.063347537326997
202,0.28865979381443296,1.031793949515062,21.02604813640913,9.025895129160098,15.847580140321712
203,0.26666666666666666,1.026981559365901,23.891556055928127,11.349057573714855,13.637540829649506
204,0.2510460251046025,1.0006784678961327,11.826490256296884,11.877230265730166,12.96460994444653
205,0.2597402597402597,0.9897352134626046,20.10129632308869,10.975088152310859,8.32940873603458
206,0.26905829596412556,1.0247276172430129,38.8703902916419,7.65890182510678,9.419336337400395
207,0.27906976744186046,1.0358696007585912,40.80209966619218,9.456656215824939,16.92624546780823
208,0.29050279329608936,1.0479731870404028,26.526716885123797,13.347436358442627,25.05252864609649
209,0.304093567251462,1.0617229053718937,21.946422132243967,10.347252805278409,21.106728118966902
210,0.31901840490797545,1.078758118720507,27.799307268808032,8.180078861318307,13.918407560342576
211,0.3333333333333333,1.0360728652254962,56.61094853139194,10.966756275423833,8.751963026851564
212,0.3333333333333333,1.0379535194783482,25.545208455202307,8.164249829548302,11.459718699893429
213,0.3333333333333333,1.0744289129713978,116.337822136434,10.838987640796702,11.815257565155168
214,0.33121019108280253,1.0621295586081865,53.19015935157293,6.166092108320062,12.295043275079042
215,0.3151515151515152,1.0926687811508835,29.16760817308691,11.834370500495362,14.89245263723436
216,0.3005780346820809,1.0403264128992087,56.02662562458724,13.220880557603383,11.429997007168168
217,0.287292817679558,0.999313825650722,53.00963024498654,9.537075490525439,11.392908167510068
218,0.303951367781155,1.0447491033419367,72.2321159707704,11.899804830072128,12.521328698406656
219,0.3278688524590164,1.1261069646931436,60.87600601149582,15.409911986976683,17.920854507279827
220,0.35587188612099646,1.147982062780269,58.32749491287788,7.5133205814503645,13.559610920343475
221,0.32132963988919666,1.1919947030051903,49.41123364657189,4.454771990186552,19.57708750069079
222,0.27817745803357313,1.2002642627282996,29.227285421796516,8.171112330807667,12.591782412956924
223,0.2452431289640592,1.0996679491909556,33.58305793289538,6.610912302181748,13.151744537824861
224,0.22295081967213115,0.9800918836140888,61.59971226790093,9.289488438539438,12.978376944525966
225,0.22895622895622897,0.9951409135082604,55.92948057339267,8.48349039788176,11.320403731440077
226,0.23529411764705882,1.0204160995527902,35.684264409577295,5.978402655946417,10.510691806258258
227,0.24199288256227755,1.0905544412343817,43.35484373113596,6.736586257307791,16.510085071760482
228,0.2490842490842491,1.1322788517867604,25.986422288422595,4.695702707691703,14.421873490940246
229,0.25357873210633947,1.07625594923321,75.25989855898315,14.757027999627955,12.821576169502304
230,0.2577962577962578,1.0774524855736143,59.42872588052817,14.498145451535747,16.922787706008293
231,0.26215644820295986,1.1458420559443347,66.35253672988091,17.238819004250857,17.9866201232659
232,0.26666666666666666,1.1299150676313305,32.33089039526715,9.962043560391589,11.28844092226451
233,0.26215644820295986,0.9864315638091666,24.419129813573594,12.134292317415635,13.770493257161721
234,0.2577962577962578,0.9912029550950171,25.708125377795593,14.17042478509704,27.758665241711313
235,0.25357873210633947,0.9834324616959108,47.63494811411377,18.90952453262077,12.828486487388501
236,0.25,0.9631054679150101,17.18340655980225,10.898302245185656,12.897571419495923
237,0.25,0.9615514714172961,18.975439847018595,24.792123028422065,15.43774465666322
238,0.25,0.9546379680486241,45.01016388491124,14.624812387748655,17.1864244994133
239,0.25,0.9399926968799448,11.143798777451963,9.145641643280198,10.635344677184804
240,0.2482758620689655,0.9322490348770879,17.187466308876353,7.391052266173638,8.318016920591011
241,0.23529411764705882,0.9439630585359228,26.573130467395202,13.347571253885693,10.982851356638605
242,0.2236024844720497,0.9552238805970149,15.838740188732906,8.598915611225674,13.557287779967467
243,0.21301775147928992,0.9552238805970149,17.352013208616448,9.415038723179254,9.615273974298077
244,0.20338983050847456,0.9523704154450406,11.539049657337252,3.156787441057451,9.298567655898026
245,0.20571428571428574,0.9518903199002907,14.223379409267281,8.892798536585348,14.640017280013218
246,0.21556886227544908,0.9927499578485921,18.570546204324906,7.218210131654235,12.519121401453376
247,0.22641509433962262,1.0679459769515565,19.56476188398929,10.528159021756636,13.728146674713418
248,0.23841059602649006,1.0513523976234158,21.46986167145058,9.78790429308338,12.480105963302286
249,0.25,1.017876583726471,17.402469181188483,8.998831915408289,16.83551594342108
250,0.25,1.0051373825575833,27.442830117523464,14.933984735390816,19.904941677080366
251,0.25,1.0236069349369843,30.95972471301545,14.923734679842457,11.26461524958522
252,0.25,1.0101645315442929,21.17176399008227,6.157761200472509,16.24315807902878
253,0.25162689804772237,0.9846882165840669,16.331526838032794,9.739515151411737,13.566316253659137
254,0.2654462242562929,1.0051373825575833,36.478889773126674,9.543680946951223,13.68954916788234
255,0.28087167070217917,1.0386292937439308,40.06899851673568,10.32225340304447,18.40119577589132
256,0.2982005141388175,1.018174903737977,21.403833748723336,21.077056688037235,22.29232467818619
257,0.3010752688172043,1.0046631885128583,46.217973888971365,13.27784234811362,16.050154287005633
258,0.28865979381443296,1.0350348065667845,24.247087352391464,9.457894722063962,13.157461492496829
259,0.2772277227722772,1.0330506951592087,14.654237447306963,8.947860515469827,9.572714085702113
260,0.26666666666666666,1.007451564828614,18.29051098059901,6.5576121013483295,10.353207983628689
261,0.26666666666666666,1.0124812780828758,11.164843065122088,5.172637491307013,8.539081244315433
262,0.26666666666666666,1.0279221719748297,14.77855486308928,11.180189999210777,12.155444108742337
263,0.26666666666666666,1.032258064516129,16.994278283830774,9.65040195961519,12.472766598739941
264,0.2706766917293233,1.0093879083740143,11.214691941153168,5.299314462142039,12.633983861278676
265,0.288,1.0229608017252314,19.684542690421853,7.296101025885391,12.082614929715795
266,0.3076923076923077,1.0230814819560796,20.104675502868723,7.974793650825213,11.069746128861711
267,0.3302752293577982,0.9989573750383319,31.895831352756385,5.161178940857955,11.661574068529964
268,0.3076923076923077,1.0256735743073848,17.184105938672886,5.97064163098274,12.379386309124646
269,0.2828282828282828,1.0233588595097047,11.57242024313057,7.3820054155770265,15.671454804018984
270,0.26168224299065423,1.0038672152956098,23.38979901270887,9.69485826050429,10.816488562516454
271,0.2515212981744422,0.9787547514512185,27.604316247414893,9.430415434374435,11.958292780641315
272,0.25567010309278354,0.9909923323159383,21.323936924494138,6.008653492020549,10.363403168988025
273,0.259958071278826,1.0114571366473126,22.574117388391183,6.491567372902505,14.857409241329652
274,0.26439232409381663,0.9768828791591628,14.152975615651535,5.869199666095708,12.024275760935211
275,0.2691415313225058,0.9828119276137447,14.95930346841127,5.720996776310198,12.47693421887887
