time,breath,heart,delta,theta,alpha
83,0.2588726513569937,1.2558869701726845,45.414035005849854,46.68349690553269,147.8770531886458
84,0.2632696390658174,1.2166540229372127,30.991290503432708,54.36139514349845,150.36595839737092
85,0.2644628099173554,1.1644947135480699,71.53273507745723,32.90841927921874,144.7659001660743
86,0.256,1.250794697308625,43.11737925517916,53.44280409435676,114.61725165552045
87,0.24806201550387597,1.2932518398403394,36.4745199755541,37.28602228944895,189.61289286649577
88,0.24060150375939848,1.2208704320442239,65.89711121898257,62.17354202973728,86.54591720738556
89,0.23450586264656617,1.1696708627828196,57.774025897146004,40.70921550654637,130.62949454258253
90,0.23140495867768596,1.1878086156989613,57.6433266505951,27.917111405585352,153.4358852389792
91,0.22838499184339317,1.2511278195488722,46.34857900107934,32.32258156465132,206.44379336223284
92,0.22544283413848631,1.195360747100467,42.17730149842248,30.498259487391678,149.84366341525282
93,0.22257551669316375,1.1617401349037728,34.84650617508272,47.885111954363325,131.5743801252131
94,0.23036649214659685,1.1877112532024372,48.25244635939716,55.65289724541386,160.05445846667203
95,0.24043715846994534,1.2722544897810397,31.114610082264075,23.958582096261175,153.6011047258231
96,0.2514285714285714,1.2493869127109383,27.37883966189528,45.44978672853746,183.8284845178057
97,0.2634730538922156,1.2362161165406602,71.17189278200078,58.21390819447158,149.9477351144729
98,0.2632696390658174,1.211555715054728,33.557969149331925,21.973831066502676,126.52741709173559
99,0.2588726513569937,1.2597940128982577,80.06596133996752,65.35140720750746,123.39997776707216
100,0.2546201232032854,1.2559052256704701,36.76387471844899,69.05793964029198,160.74111481295887
101,0.2505050505050505,1.1961840482834707,30.792434182730343,69.43547733460822,154.73569467404303
102,0.24672897196261684,1.19655180016315,22.088039956677584,51.74595429963136,112.81828528765332
103,0.24309392265193372,1.2748121787267694,54.37936897832812,44.198550097794026,152.1647804308944
104,0.23956442831215974,1.2704714640198511,21.678051559251074,55.54182186204642,145.5683864323558
105,0.23613595706618964,1.2710993955369723,62.46491003419037,61.90630484538609,183.86714178065228
106,0.24060150375939848,1.0953104768338682,54.058574443482904,31.454187398486262,167.720767468503
107,0.24806201550387597,1.2438643779259468,43.50179773937677,47.564494662139595,138.1087235538922
108,0.256,1.242392444910808,75.74345987531821,45.052063073523584,120.41924793631851
109,0.2644628099173554,1.2421953557982368,27.75137982116393,34.436308137323635,149.5957913719748
110,0.2632696390658174,1.1954145089186916,15.417312577564719,56.79021719723994,108.14444652745429
111,0.2588726513569937,1.2631167562286272,42.80014914806593,44.75530567741356,134.4024816810708
112,0.2546201232032854,1.2420091324200913,43.44476775666989,31.99001978825658,165.10094999412735
113,0.2505050505050505,1.2036012004001335,19.751499972119674,61.033267845309844,172.67276838612932
114,0.25,1.1699279093717818,34.949962887535364,33.00489624104067,188.42235183739666
115,0.25,1.24997606510292,29.974439889630105,64.16005957064974,164.50119739839212
116,0.25,1.2339791356184797,19.801651218311846,69.6110268210519,231.1700262479265
117,0.25,1.1626158857429216,37.54926963853528,39.18173111344062,135.32189752099183
118,0.25357873210633947,1.1573566846553305,26.656383408688136,53.45980764972173,136.67499564740177
119,0.2577962577962578,1.2342427093132644,37.45060035171065,59.01635311215992,158.03545617174314
120,0.26215644820295986,1.2544220288746535,30.0462099772071,42.86900077244279,177.42585593773936
121,0.26666666666666666,1.1622854299693175,41.467350754643796,42.96471704429579,154.71324786712898
122,0.2716627634660422,1.1714073707642838,42.59352141756148,46.42227153355438,110.69062027992561
123,0.27684964200477324,1.2444774457026173,32.55791590960721,48.21714070647482,143.52015500062788
124,0.2822384428223844,1.2234445446348061,37.655299327980345,61.94778624540586,98.57615889082795
125,0.28361858190709044,1.1663711705768358,27.61022958635467,42.38389175348196,144.89778412559872
126,0.27817745803357313,1.1813039595117594,45.232548331027324,29.665891649256608,125.35338139319819
127,0.27294117647058824,1.322678882844426,52.936675022135724,50.94239881602713,132.97211756645618
128,0.2678983833718245,1.1665579344839176,33.50507485434494,46.447106099005914,190.69579240115448
129,0.2601626016260163,1.075470999740904,19.496123828684134,63.36644434465719,170.74923912890438
130,0.25196850393700787,1.225718194254446,36.50958944491549,64.41414797371138,161.29270686786006
131,0.24427480916030533,1.247355786371307,35.79914657749109,47.78526859370604,139.580619261221
132,0.23703703703703705,1.1907496778983688,32.958229921877724,55.28201363964651,95.22666516611669
133,0.23529411764705882,1.1746835443037973,31.19920108917369,62.82392108362779,132.56707828585547
134,0.23529411764705882,1.2320146847716094,47.92903746207665,39.50735690085135,153.876263213284
135,0.23529411764705882,1.2676366303949138,44.03064214081533,73.49955396615805,146.59584556793553
136,0.23529411764705882,1.2259237941752044,41.51724560661939,34.25895751553979,149.29401025417334
137,0.23529411764705882,1.1803194119037894,40.384873772630264,67.07080601928587,121.12898813869938
138,0.23529411764705882,1.209874277324034,38.66065697256861,39.52724335158052,165.17919782494107
139,0.23529411764705882,1.2745916829334585,37.11139056118998,79.45547779750393,130.52114556190455
140,0.23529411764705882,1.332974543888919,30.914391554184945,87.59380747005193,196.27915354403086
141,0.23613595706618964,1.1201990875155539,24.029103165081068,49.35441630990141,107.65665061977184
142,0.23956442831215974,1.1921206626555674,46.0579287198961,58.50943485843723,127.11640396109853
143,0.24309392265193372,1.2882395013793808,60.06408476602778,24.14120889032511,172.49714198485185
144,0.24672897196261684,1.2859450726978998,36.0590033144235,35.75621369243639,100.30078512188229
145,0.2495274102079395,1.2363090772693175,33.742306651124366,29.112359099171215,184.63314371491205
146,0.24581005586592178,1.196738745125842,53.934207137440254,22.490542011531648,159.4988115754615
147,0.2422018348623853,1.2960526315789473,16.444991284042544,39.32565434789858,155.52979963939433
148,0.23869801084990958,1.34018589393111,31.91388765185291,40.134377499185334,113.64350040174273
149,0.23529411764705882,1.1338133120631388,56.27530058080255,55.915202623057056,158.4998531147878
150,0.24242424242424243,1.1493241119144924,38.971955008133435,32.354520498638436,134.63318574211368
151,0.25,1.3061224489795917,39.23197894978278,53.11249623176883,149.1500893162221
152,0.25806451612903225,1.3433230498016746,29.29219962542465,55.63366307116487,137.73911103284172
153,0.26666666666666666,1.1379332086336984,11.426866540761823,50.40998561530026,184.99670811808943
154,0.2543352601156069,1.2102290754489498,10.501020861998658,50.82405036079887,172.64746144005684
155,0.24309392265193372,1.298464092984641,14.456506574067513,39.18081624406681,194.46507623475767
156,0.23280423280423282,1.2917461043747935,19.49912640998855,58.82468419361821,181.9685341057783
157,0.22335025380710657,1.2503761733024432,34.9304973483987,47.42503922212222,149.09897889889118
158,0.2247191011235955,1.2032834813898572,44.15099969203335,31.593923671984655,185.72832565936477
159,0.22764227642276422,1.2794493509122655,50.24419379219283,61.55298354354176,132.07612482633164
160,0.23064250411861617,1.3722803497205103,28.841131810293184,26.08991263678071,202.75325164349204
161,0.2337228714524207,1.1561943693545196,39.696448976915974,45.6422471260466,162.96081233830262
162,0.23880597014925373,1.201228683402182,19.03156212184149,52.31024637339706,189.9420496080849
163,0.24615384615384617,1.2275682704811444,22.975800438090307,92.18284432474104,108.98540525321191
164,0.25396825396825395,1.2815738626383277,39.786737124564496,51.05374911504176,189.42639149169165
165,0.26229508196721313,1.354516066642721,22.09710828793627,64.92341573233116,151.80185421098722
166,0.26229508196721313,1.1049860637968412,21.76698600501682,43.76384459752269,116.01190810599812
167,0.25396825396825395,1.209361624624351,39.733510262659784,36.30240820094167,109.9550376254872
168,0.24615384615384617,1.3233438062246567,28.569731964542914,54.62946076079572,183.83473898116765
169,0.23880597014925373,1.1492857294474752,35.252469108354255,40.714001828958914,107.3696491271356
170,0.23529411764705882,1.1347648379483046,35.01530364411267,57.002586078189,177.957487209765
171,0.23529411764705882,1.207766285610597,21.020837206089865,48.942472220263085,156.66790374350745
172,0.23529411764705882,1.247645795473319,35.65042059632156,33.936086058095256,130.02979359687703
173,0.23529411764705882,1.2061549376967762,34.159832427893235,108.50389271389217,122.44828321100715
174,0.23703703703703705,1.1509480022784604,65.85505974012486,62.80727691673649,177.57335117516283
175,0.24427480916030533,1.1447237381986217,28.131652436003527,35.58625571912307,154.90835089185532
176,0.25196850393700787,1.3123696926586377,16.437342935151463,27.332941571559616,167.07538540970492
177,0.2601626016260163,1.224712957900492,27.955917570363162,20.786117937063484,148.698761065008
178,0.26552462526766596,1.260258026966728,48.26114804229843,49.053573022303524,161.57186116707396
179,0.26105263157894737,1.1500545805693172,43.64894084420851,34.578426058000495,176.18599458401133
180,0.2567287784679089,1.2583129473588837,40.2127290300926,34.53834129713401,209.6286769668793
181,0.2525458248472505,1.2265671234123914,24.004236529661156,35.87798890418014,212.54616896366758
182,0.25,1.1998858422427607,32.49554098902556,62.577510616392864,190.3879648311218
183,0.25,1.2426018852881866,45.06928837965257,67.46693535603274,192.69470845914574
184,0.25,1.274691434673554,30.29076806384164,38.03478645300598,122.73950015766513
185,0.25,1.3396493142531187,5.26679473805669,42.6246060892874,156.62483191367778
186,0.2515212981744422,1.0857878233129723,12.865660722596274,25.922440342298213,140.68411200052688
187,0.25567010309278354,1.1510931568583667,38.56747786484164,22.380595004455813,144.70890495018364
188,0.259958071278826,1.221313147338123,49.94113134739477,30.689085322086648,106.56136719896875
189,0.26439232409381663,1.1886375084868261,47.42235109011692,66.18470671943183,144.73746865433395
190,0.26666666666666666,1.2928386055972505,68.14000114388277,74.90659152947156,140.15398172153624
191,0.26666666666666666,1.1141756156720066,55.75882655166212,35.29191600729263,201.25050463651382
192,0.26666666666666666,1.243717345563725,37.32441807131915,38.92958636683923,141.9425760262808
193,0.26666666666666666,1.2443980745974914,40.23948893678456,67.53043704525152,129.10757979375077
194,0.2601626016260163,1.1804787014734284,42.440455665471866,49.93382387264343,195.3953995907415
195,0.25196850393700787,1.2453262113697063,22.10921560160394,52.556600502610316,143.20032547002802
196,0.24427480916030533,1.2673267326732673,17.76655817200875,27.604280226912465,206.7416105307757
197,0.23703703703703705,1.2157236991592821,42.59657303712531,44.8074821607024,142.29142426124673
198,0.2639593908629442,1.1720871487211872,39.797287851875375,61.87287479876106,154.4781666791775
199,0.3151515151515152,1.3213395469816842,47.04595498581567,15.0729838890562,136.87581081596602
200,0.3909774436090226,1.3747149002511765,93.20304611987983,36.735432464575,139.91984741764307
201,0.417910447761194,1.372416774751405,111.16413993344727,40.8588189766479,90.54347093655343
202,0.37333333333333335,1.3892358013678263,102.74509919282578,17.414905874850284,89.85731746079493
203,0.3373493975903614,1.4495201535508637,62.059048718807524,34.1121654173639,137.2846311543353
204,0.3333333333333333,1.413920071845532,35.445092260763566,16.787595300001126,93.78688297135908
205,0.3333333333333333,1.3198653198653199,26.311124363053054,21.39333146794879,142.61831759435697
206,0.3333333333333333,1.2353999672828397,17.429053999661505,53.86667068099191,183.98301437222344
207,0.31901840490797545,1.204934305918044,36.779237512769505,66.72368274944458,170.52879848037287
208,0.304093567251462,1.2607096238281714,50.64382314841518,78.32403563948598,133.50706779953362
209,0.29050279329608936,1.1860940695296525,50.10441397001253,55.86343381041177,140.936948000543
210,0.27906976744186046,1.131483432853296,50.38751866002808,32.00973970228871,137.4151938634745
211,0.26905829596412556,1.1743119266055047,40.51524096446645,27.81386095331362,139.59907124095548
212,0.2597402597402597,1.2050477398677972,36.73485057983238,38.617423836034426,209.75338480518394
213,0.2510460251046025,1.1483363855223359,33.134935521540875,61.20638009146952,140.16477547665897
214,0.25357873210633947,1.1091346337366874,43.469917956888786,45.77872867374403,200.9911254823537
215,0.2577962577962578,1.173860065413968,35.616860632421215,49.79887326859402,203.40323817472338
216,0.26215644820295986,1.2367149758454106,57.69033297131994,43.35489271844371,148.55167011781356
217,0.26666666666666666,1.157612424374727,31.73494026592021,57.31906478287834,150.30186782333544
218,0.25092250922509224,1.0959187824768386,44.7107630202065,70.3828150169129,149.94104753650868
219,0.23693379790940766,1.2106269925611053,38.850839822490144,119.38158605482681,178.64956622461932
220,0.22442244224422442,1.2117325939084096,29.944100057931472,110.81726009357402,87.80872783813115
221,0.21316614420062696,1.1089493436899005,112.91746340359757,69.93984908850562,126.04777349886379
222,0.21638330757341576,1.0912528175670764,36.9257297660768,35.75844525290242,181.72207661973923
223,0.2247191011235955,1.126194067370538,32.12182082781476,34.01595564757264,149.7017455116353
224,0.2337228714524207,1.2025606851799253,30.54158140128411,64.85411288049858,127.36625432099552
225,0.24347826086956523,1.1535611705448945,22.676248054465127,28.592885375410077,183.84722575390307
226,0.24858757062146894,1.1377777777777778,39.23592804292288,46.13551525966187,116.7365622180962
227,0.2448979591836735,1.1468548634550475,38.82149217185018,59.90691563051043,145.30323364565947
228,0.24131627056672764,1.21707877436819,52.09927096018038,30.355956695426137,175.91726142312143
229,0.23783783783783785,1.1804538564993703,36.05073939539536,29.544865406710393,83.44354689380768
230,0.23529411764705882,1.111064883980408,10.66466500537605,30.587985251318287,152.51519856130844
231,0.23529411764705882,1.1148940994199557,49.20677257380474,48.07132655011171,150.66338330514228
232,0.23529411764705882,1.191360618539373,30.492160273951594,51.274931522945074,192.46508413723825
233,0.23529411764705882,1.1801512483165855,59.21520668912581,49.007795124172944,204.33265958856043
234,0.23529411764705882,1.1053704458693154,26.700318385666687,43.64434411484487,132.6528704506008
235,0.22929936305732487,1.1037165890428895,80.41576872022,68.11477128259607,170.09184898676043
236,0.2236024844720497,1.174831063301265,65.7762082958257,58.65540591898768,107.44083018685554
237,0.2181818181818182,1.2173402308717554,24.39817069009149,36.71335898176107,117.88805305784518
238,0.21301775147928992,1.1641520184008947,44.42032051445068,50.77980817582011,156.28905507853523
239,0.21301775147928992,1.1263941231610965,29.21581216573589,51.91431759309502,155.73602350160022
240,0.2181818181818182,1.1127195110119337,47.355073100507006,75.24512339727269,210.09138971087629
241,0.2236024844720497,1.201532024175873,20.886784715680093,80.60422953640847,117.89353297632782
242,0.22929936305732487,1.2248803827751196,43.313881334353724,46.670954639764446,111.44458485469346
243,0.23529411764705882,1.174838310316122,33.09379040947633,43.46877044113018,161.69631392731293
244,0.23869801084990958,1.139822302086453,57.288081994090646,29.381627840810047,91.34541477912684
245,0.2422018348623853,1.194268577140953,31.374670957496477,49.9758139562503,92.21850714731099
246,0.24581005586592178,1.231756214915798,22.902044016705943,41.470058816339154,78.20392269007357
247,0.2495274102079395,1.1800242156467065,54.00107756966582,41.12065476989908,151.35522043230552
248,0.25,1.1484692331009396,38.262314323235515,35.72796464490408,140.59901643062872
249,0.25,1.2084665753007462,19.458248738239334,50.6483704441672,161.6907125967196
250,0.25,1.268688798662527,17.995039909789856,54.30725274750026,116.02762382519734
251,0.25,1.1853870390871157,40.87996741237515,60.57420365249957,153.85782490749529
252,0.24672897196261684,1.1607410910735951,102.3957365422446,55.13801725666886,98.40675483165543
253,0.24309392265193372,1.2014440433212996,56.03945948833104,40.9853928431947,112.0186791364285
254,0.23956442831215974,1.2504494275711988,57.8188112462896,40.17459629757478,80.13425535378524
255,0.23613595706618964,1.1991412399973977,27.18050657014607,43.26170062898816,129.74517198497355
256,0.24060150375939848,1.1634210039276975,36.63082445721949,34.46672357040674,129.45613090949448
257,0.24806201550387597,1.1821123229552808,15.611067471699569,41.3349599205881,172.06723354615337
258,0.256,1.254242149036853,33.2253609126386,38.3023226836815,165.86402330626618
259,0.2644628099173554,1.1992181356579568,23.871968501065936,56.46063155791199,168.8161609504118
260,0.2601626016260163,1.176189663994542,41.32886939747941,39.53946555810215,161.34205881499003
261,0.25196850393700787,1.217124962856294,15.345943027710758,57.4095071239587,151.51286299797056
262,0.24427480916030533,1.257932100255952,46.96077103426675,56.92374724321403,163.42562209704812
263,0.23703703703703705,1.1787289234760052,17.603173502977153,14.270648857724487,70.9450636694987
264,0.24361493123772104,1.1134923378269386,25.101769512082463,38.38568006530481,79.89779727509728
265,0.25567010309278354,1.1327433628318584,24.447893766048608,44.85182040634156,202.93996898451792
266,0.26898047722342733,1.2045930399136051,21.39168145217765,44.23804728889997,67.92248730610022
267,0.2837528604118993,1.205450173657494,41.28495382874826,74.81408423121603,77.54749596219713
268,0.2725274725274725,1.1940924582714323,20.57388535085058,54.135787381464965,124.33542107007109
269,0.2588726513569937,1.2259707479773736,24.51747455710064,46.08383951631997,65.93233152311576
270,0.24652087475149104,1.2350676099220919,40.439246958779606,44.98354091000851,66.38483892686055
271,0.23529411764705882,1.1398783666377064,60.68825620360735,77.14254000365955,78.39942831508003
272,0.24242424242424243,1.13946587537092,61.473418874672525,40.37079171175215,76.98012224906059
273,0.25,1.1934018646904134,30.47694976798071,18.924721120733054,45.279342255464854
274,0.25806451612903225,1.2507648886464435,21.829212957829572,45.773463961430494,120.64539653873575
275,0.26666666666666666,1.2317778454189983,31.33619488326613,44.416801997211635,130.0985589954561
276,0.25806451612903225,1.164769120074491,17.862172803015188,23.438055028948668,96.17633316372395
277,0.25,1.2372504505347905,29.678928328118705,118.57220823701141,100.15387204514184
278,0.24242424242424243,1.2103679080005392,81.69464136485351,84.98603254304612,97.36534005325808
279,0.23529411764705882,1.1851851851851851,27.044978310278598,33.66739508641616,88.91964084675507
280,0.23869801084990958,1.1082251082251082,56.92033236385808,78.74144419454876,92.56310735203255
281,0.2422018348623853,1.2013651877133105,61.720584946618445,60.91094215901569,145.90442648436152
282,0.24581005586592178,1.232123212321232,64.58269820504876,43.36170684073193,99.25267361030811
283,0.2495274102079395,1.1478204921988098,32.67691093326415,84.06276133186202,100.4527875439826
284,0.2575107296137339,1.1223330775134306,38.03563750108255,24.755785835236317,83.6054305048728
285,0.26666666666666666,1.2032513313641362,52.624873990925764,26.217579936246516,135.85587077778564
286,0.2764976958525346,1.219131149787584,98.03855505477256,42.58915930832305,146.14576082482284
287,0.2857142857142857,1.218044778442315,63.48071402817635,48.61916765857603,111.2233536994384
288,0.2857142857142857,1.190257892106807,79.78266389253835,37.35385967345735,158.51786024909904
289,0.2857142857142857,1.2604445731663168,29.265927936108337,57.97391531569414,168.5269525344529
