time,breath,heart,delta,theta,alpha
34,0.2359160746737155,0.11404204404747019,348.5345982019737,88.43715929905134,56.639224881700585
35,0.1626238469422617,0.09322930291277609,207.33367964569436,31.265338095270558,17.059094954404397
36,0.12407680945347119,0.07884080831786408,312.28025716702604,96.26582748478373,54.36290354991086
37,0.10030202992203413,0.06829979585885106,173.92271387321307,44.7674536309422,13.979352853729663
38,0.08417329796640141,0.06024503715245374,278.8004089374284,102.40113057278006,91.6994018436831
39,0.07251307571218199,0.053889696069214475,34.36651742203576,18.518721316742294,10.293664609898856
40,0.06369029035279425,0.048747271829821685,14.18595943591551,9.803733225024036,4.641925226183133
41,0.056781581772635085,0.044500784477657346,13.903222720054284,6.740394469178272,3.169366877247368
42,0.051225024213509336,0.040934854802866516,33.32806170492298,11.442702318944002,10.355917046736913
43,0.04665904264009149,0.03789801702336207,122.10142754777476,59.156242287266096,386.09867737115974
44,0.042840428404284044,0.03528064836853366,40.44106016992521,12.714776642636604,598.001580760641
45,0.03959956739968387,0.033001453400595064,25.18718753875381,8.427093133457596,599.0629413179972
46,0.036814560829101034,0.03099886926169219,21.6393492666143,7.210353213237229,599.8031265277756
47,0.0343955488113303,0.02922542116053126,17.462791491384465,6.2812082098680095,598.798503014358
48,0.03227483331449881,0.027643910549337163,18.310490766431275,5.699868864729357,600.0070062178588
49,0.030400442807570302,0.026224777407723797,15.664884139373516,5.193785224752955,598.3771588373838
50,0.028731816261242223,0.02494423531631434,15.910780072018357,5.355924853999918,599.714933119414
51,0.02723683457628412,0.02378292747324168,13.285651260577636,4.71335270539133,598.7298710118845
52,0.02588973294414127,0.02272494143413594,14.540097004571196,4.602104566952235,599.8920083009231
53,0.024669603524229075,0.02175707562820007,12.831140570364903,4.3682682488974045,598.97032926584
54,0.023559302459868346,0.020868285653912848,15.414955102807392,4.427427046103855,599.9232975088489
55,0.02254463933313336,0.020049260963254854,13.144903400407406,4.315439720689458,599.3871308930615
56,0.02161376742496481,0.019292097465455692,14.52022515776401,4.225760253268719,599.0528380618699
57,0.020756719042981524,0.018590041616111226,12.114275329110253,4.294429461149757,599.0513155733116
58,0.019965047186298497,0.017937288421181634,13.122667095470959,4.10523773610854,599.3093331526728
59,0.019231546200153528,0.01732882055358363,11.560139195525998,3.856455397069335,599.4942214346996
60,0.018550031826034995,0.016760279140332842,13.58335661375066,3.7647339283685604,598.9563579191499
61,0.01791516641784491,0.01622785917773832,11.513132252127797,3.865131243956035,599.3689873284436
62,0.01732231886167619,0.015728224266786914,13.687491817656522,3.724770773143486,598.8480342607
63,0.016767451417835966,0.015258436629182949,11.253950627599792,3.5307506634027948,599.4887861740033
64,0.01624702763587544,0.014815899301771152,13.101806575962524,3.748664430498165,599.13128722994
65,0.015757936902042573,0.014398308106579452,11.038514948385108,3.546365786034355,599.6237492433523
66,0.01529743221673505,0.014003611520648367,12.39440589604475,3.583188112754744,598.9410187887553
67,0.014863078572395058,0.01362997697021093,10.481052342728862,3.5638849652027944,599.7417785962556
68,0.014452709883103083,0.013275762380535147,12.800266542013738,3.3644872701326154,599.0451712924005
69,0.014064392857494609,0.01293949204956061,11.138675962083013,3.381818400756944,599.1428545618205
70,0.013696396543290397,0.012619836097627067,12.33506441325339,3.2318808255730254,599.1884699249722
71,0.013347166531138715,0.012345344450165458,10.870976480636735,3.3099036774851154,599.3715828957088
72,0.013015303006826654,0.012650845909611248,11.848944101463035,3.306706513113486,599.4601876078121
73,0.012699541998310285,0.012971851083149565,9.822262759136946,3.2018490230743994,599.517928808897
74,0.012398739287853924,0.013309570879957409,11.678728491577282,3.3292184779113807,599.1161588123647
75,0.012111856557620376,0.01366534568325062,9.700572785068097,3.0358211988179384,598.7522975707036
76,0.011837949415148928,0.014040663130245986,11.996979057632803,3.245169088763349,599.5778381583146
77,0.011576157007709332,0.014437178904816736,9.715084448934913,3.259681156067622,599.2180385828409
78,0.011325692984891144,0.014856741155709518,11.178091696038646,3.014390288102263,599.4027157847873
79,0.01108583760955804,0.015301419299941405,9.256662808697843,2.8412785298655723,598.8307232526969
80,0.010855930850457272,0.01577353815849713,11.188812184850592,3.0072364822704367,599.1790496105804
81,0.010635366316871356,0.01627571861267362,9.019664284449581,3.09276925827419,599.3173813197244
82,0.010423585917939808,0.01681092628203814,11.645116134293218,3.0653509025225065,599.3210332649332
83,0.01022007514761138,0.01738253013325193,9.62304196679428,2.769184351887761,598.9697990146603
84,0.010024358911360238,0.01799437346663799,11.2971292331385,2.675284073634257,599.532743934782
85,0.009835997823406644,0.018650860441525002,9.079780656409033,2.769810328311044,599.2082471893265
86,0.009654584913696935,0.01935706225892195,10.665237242438035,3.091280138486182,599.3477638449735
87,0.00947974269269834,0.02011884841674477,8.806377681065664,2.88829532895592,599.1915806507177
88,0.009311120529455872,0.020943050227564118,10.683712931497444,2.7741539673144326,599.1035061180871
89,0.00914839230458765,0.02183766624589212,9.319477793192405,3.172010397961738,599.2905163590157
90,0.008991254305161156,0.022812122695836507,11.343998802065155,2.8355077588315907,599.2841569030923
91,0.00883942333285876,0.023877606881409826,9.464487338414198,2.899116617464096,599.2567850658445
92,0.008692635000639165,0.02504749861016928,10.773580444982496,2.9477500622145785,598.9875915769106
93,0.008550642196341426,0.026337934977420034,8.3976514102009,2.9707187796975876,599.3908049330581
94,0.008413213694449518,0.027768559218145736,10.753126563140087,3.2026013159722155,598.8067352765836
95,0.008280132899612085,0.029363527633944234,8.824173885907188,2.7075472191850958,599.3873587825293
96,0.00815119670755584,0.031152884681138818,11.028680822513863,2.902967923557928,599.2051591231527
97,0.00802621447079256,0.033174473456375565,9.241362937317179,2.687307158183374,599.2823172547264
98,0.007905007058042016,0.03547664165996071,10.923475419749023,2.9560606155911353,599.3084574924999
99,0.007787405997611426,0.038122158272043426,9.008253391105725,3.1109458164513044,599.2071531688861
100,0.007673252696116625,0.04119402385234453,10.847848925314418,3.116753526463773,599.4386264519483
101,0.0075623977249257264,0.044804336185511794,8.985056156467612,3.2048248834653505,599.1508421710768
102,0.007454700167574142,0.049108265759561114,10.750987605887937,3.0886618511524615,599.2707734809087
103,0.00735002702215817,0.05432694218818321,9.28411093932875,3.230988831053417,598.8812362072144
104,0.007248252653378203,0.060786668445788665,11.892737491833683,3.348250825035403,599.5900615136019
105,0.007149258289484883,0.06898988709216038,9.95019760722156,3.4603642635021323,599.2796028143321
106,0.007052931559893119,0.07975257250675948,11.724970871216021,3.495388515741815,599.4467280722089
107,0.0069591660696793805,0.09449399617414543,9.88976799787337,3.751124813556312,599.4591914148256
108,0.006867861007574846,0.11592072153580803,12.848440502913842,4.0543836055892895,599.1889849930359
109,0.006778920784417976,0.14991407364071777,11.050167165056509,5.5590038181287635,599.4086330593817
110,0.006692254699340616,0.2121165088726782,16.088531770495447,21.146918082373602,572.4439950684683
111,0.006607776631237014,0.3625431072597038,32.087446007461566,23.986884460866793,38.75413839638831
112,0.00652540475330954,1.1118012422360246,30.30505764126506,36.36844123384027,63.68994197644962
113,0.0064450612687021866,1.1280605050634533,35.941122793938064,20.89166138567511,54.86285106726447
114,0.006366672165426473,1.1452879581151834,19.370796178715,8.261589412150741,57.21766736706393
115,0.006290166988956968,1.1363636363636365,29.54504090637186,27.839326874828718,48.84611862238604
116,0.006215478631027773,1.1440899581589958,46.26388884578709,26.651740973730128,76.76959338891486
117,0.006142543133299208,1.1593620158155742,33.322677225817095,33.14194457044662,66.25432006662798
118,0.0060712995046874,1.1167512690355335,37.629062411823966,24.446345642748867,36.817096745643674
119,0.006001689551260229,1.1111111111111112,16.42113057662796,27.548457394984435,41.326992299308166
120,0.005933657717702494,1.1363636363636365,35.84656589211435,36.04217839018042,56.88988891436107
121,0.00586715093944262,1.1397681385958054,62.531631189730625,33.942431842632026,46.04241242964248
122,0.005802118504613659,1.138863724602045,54.960653136041834,33.33181210364614,50.06770924090935
123,0.005738511925093934,1.1518601880047659,27.625468169019342,32.72296649439624,41.06793976218228
124,0.005761030563368975,1.1667576419213976,16.609035638207573,20.85809148351081,49.15461957139464
125,0.0057961374919828015,1.1511844556827258,24.39541477880651,24.818692050066208,51.15250138662604
126,0.005831674917583774,1.136511235225354,35.06459899042925,37.61976862281192,51.613267358825894
127,0.005867650807443259,1.1535881958417167,39.376069198262705,29.4075436145067,60.403903871488126
128,0.005904073326654956,1.1551155115511555,93.95314131274321,64.71811626284426,65.98151605352535
129,0.005940950844313001,1.1166562694946973,28.540058302974526,31.97908209531134,46.382029973489864
130,0.005978291939923067,1.1382744793687751,49.13292536074858,44.4294895952026,66.27658938920494
131,0.006016105410056758,1.1400651465798046,19.380207926344568,28.916090770404182,60.63370586565987
132,0.006054400275260165,1.1475409836065573,38.26996194202758,37.130571849336086,67.31640792684242
133,0.00609318578722795,1.149501661129568,29.524371741971343,21.74233965841703,57.109885938495694
134,0.00613247143625497,1.1627906976744187,23.90594069972228,16.84943880766776,41.83391306774194
135,0.006172266958978035,1.1541522950384726,26.8137101474776,32.69301325414668,66.81063284765786
136,0.006212582346421061,1.1245893353550678,56.979550202419574,30.08562357429753,59.7482191160676
137,0.006253427852357593,1.1333077218593917,20.548733883634473,26.8247350943158,41.857302269254625
138,0.006294814002005397,1.139916623241272,22.30931314853422,24.78226258993305,59.11664888804582
139,0.006336751601068591,1.0943579766536988,27.21470292818695,25.59497521763599,54.057407271220335
140,0.0063792517451436645,1.1097560975609753,50.49163771465718,35.3483215184513,57.91506440180008
141,0.0064223258295065516,1.124380637784271,43.92898517016607,32.097648488027154,78.80736646950174
142,0.0064659855592989176,1.1363636363636365,33.131200992684136,33.288665353692735,76.96391538843372
143,0.006510242960132766,1.1280101394169837,35.71512690625519,17.632689114150534,32.09693335193018
144,0.006555110389133561,1.1281070745697894,20.346410442580257,30.343469597184985,52.400057161878486
145,0.0066006005464431606,1.1417014613778707,21.018032927620997,34.297257441405264,42.96955306398641
146,0.006646726487205052,1.1180904522613067,37.79502815174996,22.824450349988318,63.39374950179794
147,0.006693501634055659,1.1215538847117794,57.1573806098808,32.36358433236269,39.53803998594849
148,0.006740939790146809,1.1755168220510732,37.65505537968109,22.74383577315361,38.49754876862845
149,0.0067890551527259166,1.1456841557088921,24.095837313333323,20.025827538305208,30.730637472814966
150,0.00683786232730194,1.1235955056179776,16.16335137789435,31.014358202257576,55.23237782607593
151,0.006887376342426802,1.1338745007086721,24.302155212671888,25.489682447938318,60.98140877671476
152,0.0069376126651237114,1.1642073913632063,19.46683684608727,18.033076066979888,56.338672603023696
153,0.006988587216995633,1.1385944248135045,16.64442169691526,34.35687886767665,47.113388835091484
154,0.0070403163910491805,1.1343245321712387,42.64689340501644,31.22900515515187,91.56453430479765
155,0.007092817069271242,1.1624799572421178,34.753327469783855,26.85951025352469,87.07672658948039
156,0.007146106640997957,1.1346153846153841,43.26723778959382,29.993599913780436,36.99490232630697
157,0.0072002030221180015,1.137403582167606,10.051604539938044,19.581433187640666,67.74647117058178
158,0.007255124675154766,1.159206647011523,20.38124006439689,22.47244972955583,42.43871343779866
159,0.007310890630274678,1.1437908496732034,14.527335414412919,15.661251412964123,43.55933809163169
160,0.007367520507271904,1.1494252873563218,20.321753921194112,24.102586704464006,63.61335528200951
161,0.007425034538582792,1.1381373569198745,27.83011575859263,30.516478812998876,55.44606336019586
162,0.007483453593386753,1.1494252873563218,59.084198676259966,21.649908723359232,41.811878321730475
163,0.007542799202853898,1.1453859169595195,29.73696241085119,19.42000339527297,55.8004873459452
164,0.007603093586603599,1.1385944248135091,41.74428348233722,27.145990696362773,49.78162287640897
165,0.007664359680442272,1.158275307980715,36.96154583315026,25.491815727212526,34.17748300408403
166,0.007726621165453137,1.1363636363636365,28.63444913508764,40.13075280798082,45.77093565016343
167,0.007789902498515449,1.145887899423783,37.97437913096812,32.551708484260864,45.953636952256495
168,0.007854228944335835,1.1860174781523136,25.878666931168237,22.111171211691794,55.95063009506106
169,0.007919626609079874,1.159114857744991,33.519053686813784,31.646066033588923,61.95651152522561
170,0.007986122475697969,1.116127414095813,39.221081330135554,27.200230767001166,39.26323189207489
171,0.00805374444104593,1.154052603327969,19.602223598267546,42.07300714528314,61.29492727664023
172,0.008122521354907578,1.1763077774702446,54.101802344267895,33.80575291122439,42.537134714651394
173,0.008192483061033998,1.1365112352253521,81.64262069937601,26.764995272879652,34.90625521242649
174,0.008263660440322148,1.1235955056179776,76.37402729560797,61.57206911084944,36.500039055388825
175,0.008336085456264023,1.1729809896184473,34.7938737639158,39.13761681351194,55.577946249156994
176,0.008409791202806941,1.1520428667113214,71.92951516659863,29.308172007999488,70.74262626915508
177,0.00848481195477549,1.1764705882352942,125.35155614712266,31.004644327312285,101.26525598969654
178,0.008561183221016535,1.3649025069638259,94.27918392804224,28.63781452061529,63.787321385593344
179,0.008638941800440444,1.072736787022458,138.49968850407754,53.455246959592074,89.11609968800576
180,0.008718125841144314,1.135814403093294,134.66239064703197,18.746825894457494,73.75697970560614
181,0.008798774902816811,2.1618903971844086,102.00963946328011,21.80693343875326,70.76933059806274
182,0.008880930022639092,1.2922465208747902,93.03654131981426,28.117303127783416,63.72628571015807
183,0.008964633784912473,2.037958929682497,90.21269078857614,23.841886021581125,55.744199087343304
184,0.009049930394661036,1.1693107221006573,111.70240167587701,32.080244415497845,57.09089599442207
185,0.009136865755476503,1.1764705882352942,113.60398779785677,17.436205326145487,57.33476007426726
186,0.009225487551893367,2.351274787535433,169.52585231832106,25.625636583386786,48.83256031959959
187,0.009315845336604909,1.2054354178842792,420.9350705123485,40.8617451355434,47.50841988990065
188,0.009407990622855248,1.2157382847038012,677.6282344885569,38.45106159335918,35.133102722111715
189,0.009501976982369419,1.2116316639741527,247.64649108148288,32.84233284595921,39.92798639366969
190,0.009597860149212635,1.2513601741022866,206.224765666925,34.58106431057736,19.752654118406806
191,0.00969569813000183,1.2658227848101264,244.75639436573496,37.659331413199645,32.59559829344781
192,0.00979555132092742,1.2658227848101264,147.9596116847019,30.384006101229875,42.49428207841731
193,0.009897482632081366,1.2505862122870073,87.92101194683377,36.842018557969034,42.506650041728605
194,0.010001557619629287,1.2029746281714746,93.95026774333783,24.434747794520263,44.36341909178416
195,0.010107844626410198,1.1778645107332024,120.12465659670923,26.110105443621027,48.486154228593506
196,0.010216414931597475,1.1893033075299073,111.3430635759501,33.11638679285119,50.770551159208395
197,0.010327342910109793,1.1692726036709704,77.12807002375608,35.181498917488945,56.71370990467394
198,0.010440706202521174,1.1550273734811065,87.35256386193018,16.910378788932384,34.29132346626872
199,0.010556585896285872,1.1707517458578673,55.33788198391432,35.50768674873357,44.81431302833299
200,0.010675066719166995,1.1560693641618482,74.8608352291786,28.471056120348372,62.31613882132606
201,0.010796237245838582,1.1263279150134375,115.48203415738573,31.334283945700225,54.29579026522214
202,0.010920190118719773,1.0869565217391335,108.18329923958667,37.13398138700735,41.29877033732831
203,0.011047022284198231,1.1393399685699344,50.60120323946472,28.330804762503348,35.04708305036834
204,0.011176835245508653,1.145482785399943,55.373260395548925,29.105696851810805,50.88643205140342
205,0.011309735333652645,1.1179500062806214,103.67607843813846,40.46423686522489,40.727270978338396
206,0.011445833997879707,1.1294027565084195,66.61744108390221,47.99916872791005,52.56245995884914
207,0.011585248117397182,1.0958574181117517,55.91552829033519,38.020298542545646,65.28065945950325
208,0.011728100336141457,1.104368932038837,98.2200810460429,30.599779653414863,55.59354432350914
209,0.011874519422625827,1.1111111111111112,179.86250216820187,45.41446553802693,37.231305146762494
210,0.012024640657084189,1.1609498680738821,129.67281494740485,26.124490932863967,41.3469856703984
211,0.012178606248357055,1.2156797882897985,97.90219384846392,16.86990527623846,41.179611156758035
212,0.01233656578322025,1.2467690436368914,138.02273703803752,40.49340967287951,32.09799864843971
213,0.012498676711140556,0.956084172003659,195.2346583584458,38.77903913691195,45.35878290612036
214,0.01266510486776039,1.1295556665002577,205.20066272649925,28.68412263834854,46.06414907336655
215,0.012836025040770162,1.6797171002778661,67.49743773024669,35.72697137871498,77.84932959894161
216,0.013011621582227406,1.3333333333333333,151.63927671889323,36.03118743796954,80.130593914746
217,0.013192089071832008,1.3333333333333333,451.2793613274534,26.06493429985586,64.66874271149757
218,0.013377633036174437,1.4459822350753972,486.75279525190484,39.880259540323074,99.56854534915716
219,0.013568470729546273,1.4084507042253522,385.1158167518254,34.52618692200951,64.41171053873452
220,0.013764831982549505,1.4084507042253522,195.16792652999203,38.50990750327456,74.46746740041591
221,0.013966960125473675,1.4356435643564494,162.27929013602864,44.789253573894804,103.81558733842216
222,0.014175112994240877,1.3583664993943545,262.15868046353734,38.61355298932912,91.57192081949404
223,0.014389564027662564,1.3963161021984534,255.2935314437855,50.56749126315183,80.27147560373801
224,0.014610603465826759,1.4265335235378034,107.65142465065215,20.745557190602202,57.75137963376169
225,0.014838539660659629,1.4696553182490995,104.94653437152898,34.66869061635781,92.945977220448
226,0.015073700511105532,1.4401160381268137,104.84487340034417,39.74353038211902,104.65269426610178
227,0.015316435036972872,1.3943440691280453,221.2011746734209,42.91586879738618,169.25491766763503
228,0.015567115107332285,1.4124851837218493,326.3803390209572,66.14264833834828,171.17793585635164
229,0.015826137341468375,1.3822688274547188,430.1482719246519,45.51830775124343,168.4326096281354
230,0.016093925202823035,1.3880911353628185,295.87155383424897,45.48243026423244,135.91714800736997
231,0.016370931309182487,1.36986301369863,225.39429615519668,38.26401565021626,119.20255682363535
232,0.016657639985618,1.355338373593951,157.1127868895275,56.30079060183908,75.79859453525148
233,0.0169545700904707,1.378180416345414,169.20478821362482,23.4789032917706,72.82650001678736
234,0.01726227814906874,1.4173703256936052,138.7433592398441,18.194619901803705,63.03696595786724
