time,breath,heart,delta,theta,alpha
13,0.0489432703003337,1.102717192640429,180.47096020077234,76.43858418151135,38.9226206492691
14,0.05170387779083432,1.0941902991786079,201.76772505597472,71.09339506763601,37.969139127214234
15,0.0547945205479452,1.098173722056744,151.1420810667115,64.30097995506651,36.148051920954245
16,0.058278145695364235,1.0872794248707742,182.7617525554364,56.44312093552744,31.262864583602912
17,0.062234794908062226,1.087667161961367,130.00441986887242,54.505762472201724,28.6129488578575
18,0.06676783004552353,1.0989010989010988,150.0289139463763,50.4104311764329,27.44447040075849
19,0.07201309328968904,1.0973813174588858,124.28284227381093,51.50643420657378,29.959467190429624
20,0.07815275310834813,1.0928961748633879,137.65626349779563,43.2159440869855,29.206463545704754
21,0.0854368932038835,1.100900736966609,118.8059361470124,44.31352439965385,28.868574220078827
22,0.09421841541755888,1.1214777118085006,130.2055522474397,46.42591404438374,23.895542071532397
23,0.10501193317422433,1.125626228676517,96.97847577973178,41.48704482654426,23.586523824931028
24,0.11859838274932612,1.1185612232109288,113.07934252392506,33.83023452256093,21.21341223220821
25,0.13622291021671826,1.1289759934037358,102.76399926809246,37.27165086303516,22.28541005493032
26,0.16,1.122961104140527,100.50702773918731,31.451661824048546,17.697134976537185
27,0.17798594847775176,1.1100861008610086,88.40352321092297,23.389413355676243,19.85702907810242
28,0.20052770448548815,1.1083402604599613,223.826215725504,33.803614741431836,19.334027124679274
29,0.22960725075528698,1.1197540932187442,183.35317501090157,51.92168130687756,46.79391287037667
30,0.2685512367491166,1.130123866683693,105.58454058166164,78.30662084567203,66.0769552595912
31,0.2934362934362934,1.1535401750198886,57.680919218951175,47.75906665894155,24.301916069972982
32,0.247557003257329,1.1466525675764987,67.89400873303406,35.15080094238659,23.5737180608306
33,0.21408450704225354,1.1554935750572766,63.72773437470398,31.38225935092508,18.43409666099272
34,0.18858560794044665,1.1560693641618498,58.9647551944232,33.1736296878537,21.008935042683607
35,0.16851441241685144,1.1560693641618498,66.83875475882853,33.11115780437079,19.712143083110135
36,0.1594996090695856,1.1560693641618498,71.2006111387236,27.1054463114631,16.219418974867118
37,0.15850815850815853,1.1560693641618498,69.57470362028579,32.769482525672274,13.883093463682677
38,0.15752895752895754,1.1511793782967854,80.11033441496694,29.316389771878022,19.60606454999261
39,0.1565617805065234,1.1436248648294396,58.314414087166696,28.32552274287224,17.7300642738137
40,0.15560640732265446,1.1365108146613132,72.50022250672458,25.81984779002026,20.970929191910283
41,0.15466262319939347,1.138666409340925,57.803278260187795,23.46703503327284,16.161686227984486
42,0.15704387990762125,1.1137580051356621,62.72147557865723,24.588975040446716,15.568587281233832
43,0.1883656509695291,1.1098436970126704,61.62261200835219,27.074424052190817,17.602540637995048
44,0.23529411764705882,1.11100823997778,55.70185633768926,20.93991768139522,17.091959140384997
45,0.3133640552995392,1.1049723756906078,51.609705309456245,25.453723580697226,10.376616504777594
46,0.4689655172413794,1.1094038106945294,63.2072800087971,20.326964629607595,21.185395004658186
47,0.28135759960649287,1.1009732360097326,42.92406750416217,20.75574056942196,11.429882510028905
48,0.18760249262053133,1.0933381260484065,49.462332084001424,23.620716077829897,14.883918889205114
49,0.14071340713407135,1.105124594379477,45.61562923832842,22.227991368150295,18.509065437798675
50,0.11257626451485928,1.1111111111111112,60.44497218407656,19.96824369183005,15.735774243869841
51,0.09381663113006396,1.1126262939316927,41.74898736781546,19.653154716988148,16.327752660624295
52,0.08041613946295516,1.119578511619155,50.758476478963864,19.80946365318225,12.048362545204263
53,0.07036535859269283,1.1266622234917005,40.75622415657817,17.623075489527857,15.158640872918623
54,0.06254784034991799,1.1299435028248588,48.51503875591399,20.650231882370086,15.741569838727074
55,0.05629367188268872,1.1299435028248588,40.16689276122,20.583339349306254,11.929821711242203
56,0.05117652321732129,1.14126381999157,48.89690069188286,19.48299329920181,15.410377447108562
57,0.046912162716312635,1.1173708920187793,38.703655558974646,16.33228527287063,13.223161815835788
58,0.04330380800969036,1.1227827399672916,40.25456007942677,17.578288995076317,13.046254517948924
59,0.040210896309314584,1.1188767355125833,42.28256464401906,17.24223363921929,14.994009820405022
60,0.0375303457778361,1.1212663714312636,48.33176195901671,18.0116043608267,17.498206849347522
61,0.035184843452051424,1.1203866432337433,47.70910082441509,14.507664501201988,14.579712577480391
62,0.03311526660105367,1.1235955056179776,38.97901251008254,16.660734668361677,7.812484589034297
63,0.03127563016020559,1.1144315776366582,36.20654050470071,19.591276539198894,9.98556187497592
64,0.02962962962962963,1.121694447925805,40.821619008868836,14.871847937188916,12.391214052371756
65,0.029064092831580093,1.1175107994741127,35.97288225544708,13.023533399622151,14.25937558243052
66,0.02851974034266255,1.1111111111111112,47.504267381824356,17.4499804607673,13.663826959914378
67,0.02799540373968453,1.1111111111111112,35.207282406915645,12.604487022912393,13.980091761710174
68,0.027489998974253773,1.1130057355448764,41.61188430434638,17.09564603061731,19.158006930149096
69,0.027002518891687657,1.1173184357541899,40.28816260830075,15.251831322894295,16.08471921000273
70,0.026532026532026534,1.1139727557638008,41.89991575413803,16.543701441474642,11.048939454099836
71,0.02607764911939282,1.1111111111111112,35.299859056845065,17.37394513472847,6.214028914407989
72,0.025638572658566918,1.1111111111111112,42.033407016447875,14.142162614801569,11.81576167306563
73,0.025214037068397782,1.1005046513041898,32.573664803560035,14.529665465169233,12.263629517640032
74,0.024803331790837574,1.0931089215656915,39.283616257376615,13.408308758792826,16.151089016974492
75,0.024405791822238412,1.1065434426482845,27.759753440905914,11.821848444180695,17.265214945174232
76,0.024020794120283233,1.1241936494018931,39.27388324347302,10.839016878481273,12.664804896203405
77,0.02364775434571605,1.0971504148130338,32.44183819799124,15.367123688907292,11.66892374831681
78,0.023286123903032408,1.0928961748633879,31.24627761047782,14.559332715655929,11.636328514769573
79,0.022935387248609326,1.0957670369258476,34.911933548972144,11.489148882351188,17.190944583789918
80,0.02259505943849591,1.0989010989010988,33.15680905816294,16.06393193958185,11.142908896765572
81,0.02226468389133505,1.094846721458996,28.653197849641764,11.18267259888412,8.128002742207322
82,0.02194383034471465,1.0975133054695247,40.131972877260004,12.653208827254316,12.033713603429916
83,0.02163209298571313,1.104182509505703,35.97914312165125,12.757759390050078,11.23835039458128
84,0.02132908873855949,1.1232790988735908,39.551346171410955,10.421792645767587,11.219457632597585
85,0.021034455694215522,1.0994669251272107,30.53460104108767,18.24992214531461,13.259397002366319
86,0.02074785166834404,1.1061743526888306,38.435765210492995,12.038036754894305,11.995291938052867
87,0.020468952875582373,1.114917471192774,34.36413592626979,14.848351629056003,10.676211733732071
88,0.020197452709322484,1.1235955056179776,36.630985771154386,14.16881219212098,9.288332540572135
89,0.019933060617329863,1.1235955056179776,34.07161361597011,12.768412814684627,12.282051705301956
90,0.019675501064532704,1.1110767230973986,35.21555059248313,11.806297792071748,14.652668645287608
91,0.019424512575197506,1.1145855908851656,27.94642626494522,14.707370286590297,11.941413525111056
92,0.01917984684749159,1.1062966718908462,37.96663177025669,15.177157500712093,12.490064749408502
93,0.018941267934129622,1.0814005022898525,49.811394962036054,10.993085127829568,15.09809889565414
94,0.018708551483420592,1.1044848779894119,56.368602841807125,15.350862544833008,15.274351329280275
95,0.018481484035583754,1.0978103946102025,44.95483548897642,14.331872252720515,12.838526966163018
96,0.01825986236969408,1.0928961748633879,49.45492890001796,16.48854110020411,12.140139214586798
97,0.018043492897057832,1.0996001454016706,37.60594510937482,12.495383231221773,15.62886431270353
98,0.01783219109721206,1.1111111111111112,41.62176283733905,10.265634036734495,27.535103146206925
99,0.017625780993094378,1.1039277872651876,38.83719258268038,14.508437899856721,19.956822541028274
100,0.017424094662245627,1.1115900973026216,47.76508072213076,11.127533659650378,24.37444275441606
101,0.017226971781191744,1.1123160340821074,42.23099349235206,9.627989131519108,17.2391026629749
102,0.017034259200406788,1.0999696140990591,59.56473840414372,17.891887097805437,16.51809387015765
103,0.01684581054748884,1.0989010989010988,63.76061621409137,18.077500290416523,20.27489191520307
104,0.01666148585638794,1.099566837306515,139.41625380407677,36.96669580634613,19.42562792613272
105,0.016481151220712136,1.1062760480509923,133.93532323205204,99.06341731027243,50.99221006883461
106,0.01630467846930705,1.1032977691561612,37.55776051112851,20.583787061214355,18.82191557314049
107,0.01613194486245711,1.0918854415274453,52.92641561818994,23.934816090493133,17.989233331306014
108,0.015962832807195185,1.092798280186314,94.53460737679569,44.45754075472414,31.553385600243345
109,0.01579722959033304,1.0869565217391304,438.4995148020434,122.02348026602795,79.83458527596981
110,0.01563502712793886,1.0789688557097876,100.94014987578237,37.219063038795255,17.686437731688308
111,0.01547612173009182,1.0796810430126296,81.98070620647191,13.158117211450708,18.81412503158188
112,0.015320413879837652,1.0910492454564311,151.1256764691737,109.31059407121367,51.55659212178391
113,0.015167808025355141,1.1042684221703107,213.90922686456506,172.35125176824192,76.50577616770099
114,0.015018212384421406,1.1052599350927677,91.11734282545409,42.57081083784069,25.51507671475533
115,0.015037347123040301,1.1111111111111112,163.89712219943013,50.52727676974942,23.226075568820306
116,0.015112768309382784,1.1094720019669317,191.10328189301828,115.83417123034546,46.54062359415389
117,0.015188949873149053,1.1072600680918925,317.244077182539,202.19618535295805,83.29091390082138
118,0.01526590337149809,1.0965900555805956,106.4734918807124,37.63095512484467,16.51828487574697
119,0.015343640596994923,1.0844010814623244,21.494135978694267,17.885693713521146,16.059340266750738
120,0.015422173583634985,1.0756117360547393,19.082970862772637,12.40648056838697,19.07424143921706
121,0.01550151461305444,1.06951871657754,12.33800173527377,10.720418614473347,16.30963898158408
122,0.015581676220933201,1.0650383413802904,12.337948122651742,10.412221679134735,19.3342246980726
123,0.015662671203597628,1.0638297872340425,9.163786694613961,11.175151726656226,19.078638341209743
124,0.015744512624830266,1.0638297872340425,13.36590703583809,15.873407648292241,21.82744487815307
125,0.01582721382289417,1.0638297872340425,8.50610468859395,7.779129944834335,15.31066983625155
126,0.015910788417779785,1.0534573573910095,13.091964791384603,8.91357065981505,11.15351826372337
127,0.015995250318682663,1.0735142562693254,12.378223201881937,11.846723270219126,20.190089507675324
128,0.01608061373172059,1.060080633792888,14.220157438046183,9.207978897084109,11.821152249812588
129,0.016166893167899186,1.066878529069604,14.057675566350031,9.187718993346657,15.038509848258617
130,0.016254103451335284,1.061517179074559,14.405330891744484,10.118884517555994,15.081191877007795
131,0.016342259727747943,1.0654274460910726,7.6381763022724565,8.29674564597292,10.049552143330695
132,0.01643137747322726,1.0629576230458246,8.832315060395551,11.904543323540162,10.647588849300384
133,0.016521472503291668,1.0723321067157305,10.589651212999312,7.685737671968143,10.99271893322764
134,0.01661256098224487,1.0852302805717289,12.900821929082008,9.10447327542945,9.585637006770606
135,0.016704659432843987,1.0701648399067962,15.992913578026387,7.648579900093705,11.214823127307577
136,0.0167977847462911,1.0503330661433439,14.913349832511084,8.309365437905486,11.432522915017616
137,0.016891954192560902,1.0512954940536956,9.215553289333165,10.911104859586114,9.61202637578731
138,0.016987185431077648,1.0437728837641411,13.693474243869854,10.761669022559643,11.424044897688347
139,0.017083496521755347,1.0416666666666667,15.004744358766997,10.961478906906088,12.035407041991421
140,0.017180905936415643,1.027479091995223,12.929672762195853,10.0288757114586,10.981994789072974
141,0.017279432570598555,1.0504774897680733,13.76252276495873,14.937368070377552,13.958789813257347
142,0.017379095755781965,1.0420076377523195,12.527984467045616,10.373690004429777,11.162024683554428
143,0.01747991527202641,1.041837571780146,8.474294994881797,8.342962229122708,11.763090601924228
144,0.01758191136106259,1.0585427488417796,22.784796043785956,11.021812042071366,13.675415888631585
145,0.017685104739839752,1.0638297872340425,15.306261049364453,8.385964589746637,9.37258849090163
146,0.017789516614554,1.0627801426437016,12.487207733842249,7.359429613583127,11.019180245586261
147,0.01789516869517651,1.0568289554402994,11.029128038666745,9.759184283665515,12.891781819623182
148,0.018002083210502524,1.0477076266549965,15.409885164389852,11.593402918140765,9.83174772540835
149,0.018110282923743056,1.0362694300518136,18.235513872060622,11.786344211243982,8.690296516350315
150,0.018219791148682246,1.0403402779659172,26.91561890542084,10.452172666075953,8.425252439327659
151,0.018330631766424525,1.040287497635712,19.59843716328301,8.274484400462693,11.668576216724173
152,0.01844282924275676,1.0382675763868272,35.20190893426126,9.782576237749886,9.06207455998321
153,0.018556408646151976,1.0583195677128514,37.95396170254277,9.47159422506274,9.133059415149239
154,0.018671395666442447,1.0662799624669461,41.3899395780665,10.472926273028186,14.134637153725409
155,0.018787816634191365,1.0638297872340425,44.46795826440076,7.072221013982789,11.375945662625577
156,0.018905698540793794,1.0758891228474985,46.45442890019911,6.8337317115783796,12.387330751824118
157,0.01902506905933911,1.0676665903366178,38.237996894109614,7.0921300079764595,8.365302138657974
158,0.01914595656626884,1.0591077649174072,22.48930212980744,9.466672196273077,12.790202330498765
159,0.01926839016386546,1.073606458816454,8.57777259941062,9.426267335154227,13.005678389042545
160,0.019392399703609613,1.0809708341831523,14.157701954463755,7.285641720738611,15.002253162848179
161,0.01951801581044512,1.0528947660851198,11.218347854783522,11.798379241296443,11.326204138288231
162,0.019645269907993222,1.0593638182176754,21.139073444263712,10.356124334706248,12.07200667418386
163,0.01977419424475962,1.0647861999213384,13.834728009875358,6.781437022492725,11.339315585215807
164,0.019904821921380298,1.0416666666666667,17.32205230874938,10.71127941567363,15.327506684524478
165,0.02003718691895439,1.044514929454226,14.445993678653814,10.089563411115616,10.504371563419634
166,0.020171324128515116,1.0492199516589775,8.894750319396467,8.740963802409276,11.411447966575972
167,0.02030726938169242,1.0535117056856147,11.449282491469434,12.868894993948675,12.251674119909573
168,0.02044505948262393,1.0777364629328365,12.691004016297377,11.36577377796416,14.565883450365494
169,0.02058473224117396,1.0840506477863616,14.56882144569629,8.190638848138553,10.893271268689018
170,0.020726326507523474,1.0940395767322273,19.072293598846866,9.04522386347144,11.355174904727797
171,0.02086988220819758,1.1031087610538781,23.967352384646503,11.976576658367938,13.11680473553606
172,0.021296273152198366,1.0953627636845134,17.61871940049611,5.976058612911437,11.415005941554282
173,0.022041133100504463,1.0773408075676647,11.126741993401206,13.300021984657324,10.544154416606133
174,0.022839986060102405,1.075268817204301,22.916352132006704,9.70344540791002,13.662908421726893
175,0.023698923534811272,1.086509661126448,11.624484237207744,12.701268730987747,11.257547981608706
176,0.02462498916153646,1.073910296904613,13.618441634281185,14.31450339034858,8.353440867418355
177,0.025626372304268053,1.0702921608330875,19.322945248208825,7.665416871642614,8.401835731552193
178,0.026712650885718763,1.0956115667844117,19.152709225098288,12.199003833365405,9.929896134429994
179,0.02789509871328946,1.0869565217391304,8.72256457301876,5.871111831552983,10.605125835464987
180,0.02918707820903703,1.0950766553658735,16.968266377195476,9.351363269481086,11.838230017248552
181,0.03060454757713998,1.101602330662783,19.62131072745514,9.328328190133957,9.951345559354822
182,0.03216672329822177,1.0989010989010988,23.15879599425451,8.294025710828485,15.058249233691843
183,0.033896956435249655,1.1081180359985294,14.518517324695406,13.203963616784785,9.58322766627432
184,0.03582390783332633,1.1111111111111112,13.768944547987886,10.090119979744252,8.962447968725215
185,0.037983148321519326,1.1111111111111112,10.249847357839101,8.36310443373024,12.47592223369128
186,0.04041937473314674,1.128689642053202,18.609278488971302,14.010117136935413,12.263897985437652
187,0.0431895371825417,1.1229183187946046,18.954906329729578,15.518303067691159,16.519082885622545
188,0.04636734693877551,1.138237671786582,15.104759209055924,7.057233625510582,9.521200214171293
189,0.05004993244434001,1.1362535911423852,21.518589359395488,6.919612899822227,13.785221271712008
190,0.054367940782336796,1.380608722936873,27.12317731023938,11.90051157765,10.608714417703295
191,0.05950136182694323,0.9517390132111565,15.090265862908796,9.242128803971438,10.815315398113633
192,0.06570525179301302,1.092851273623644,24.7886395861881,11.238938089902463,8.691421136843585
193,0.07335342229875164,1.1175300691353323,20.439061494034203,11.185877794776633,10.045380896608698
194,0.08301666179479687,1.1465685787188884,22.22643280950293,11.943989638875442,9.771698180715138
195,0.09561216474020875,1.1655090631882112,26.340032694333612,13.441283388213648,7.080847536431263
196,0.11271332186797198,1.138237671786585,31.36398851191713,16.33500758496974,7.154541625895283
197,0.1372643789270179,1.1173184357541899,96.60256838204079,29.322933510230005,18.173817606259163
198,0.17548918640576727,1.1216891318691669,108.44173143738675,23.257765490004694,14.870208098175098
199,0.18317358892438762,1.1341064906772584,448.0513806394719,173.51443188539739,116.3559976669201
200,0.18474758324382384,1.1489724903158016,148.36852405847685,60.664133085486476,42.51674195073038
201,0.18634886240520043,1.14069669747302,47.86177735131856,21.94220495792776,21.76417357573735
202,0.18797814207650274,1.126670910248248,106.99508235278445,30.486284628487788,19.35771365293402
203,0.18963616317530319,1.1315688530878418,90.19858282882933,23.522303216657097,17.358013677039498
204,0.18963616317530319,1.1267695042214174,235.03998862722233,46.90133497079146,30.103734835167508
205,0.18797814207650274,1.1380904652591408,444.32249723247594,200.62284385282254,134.00861684482624
206,0.18634886240520043,1.1428571428571428,84.84406668617808,32.5358156786726,16.487391714496404
207,0.18474758324382384,1.1253148012368914,102.44955323047961,24.14534322931474,16.419362693913445
208,0.18317358892438762,1.129709775967414,29.773163367734686,21.045525278423497,20.207735581727142
209,0.18145956607495067,1.1235955056179776,21.227883003497645,18.83969450074833,20.996704567617897
210,0.17864077669902914,1.1272449369507065,21.533603993376456,21.472079296134996,18.144623892356904
211,0.17590822179732313,1.1363636363636365,26.63873691542956,22.717425753049096,18.609144749714098
212,0.17325800376647835,1.1292586448896262,44.24034950246582,28.250782785801338,16.10642021521063
213,0.17068645640074212,1.1235955056179776,117.261435426704,36.274979031407504,27.164768884430188
214,0.16819012797074956,1.1235955056179776,602.7023389142904,184.06215448393766,127.0535992146923
215,0.17571059431524547,1.154073781811009,531.1230730288855,250.2387796264593,154.9015179750436
