time,breath,heart,delta,theta,alpha
69,0.32298136645962733,1.4458081963802785,273.77468150779447,30.65481642742698,54.962752897621996
70,0.3076923076923077,1.455279371149352,139.83883566889196,42.673606075543866,204.7294762576518
71,0.2937853107344633,1.4705882352941175,89.06631042215162,38.39765973816416,242.42988167846926
72,0.2782608695652174,1.4537351443123934,84.07733672386316,51.51055427062695,226.67026482983204
73,0.2601626016260163,1.4705882352941175,62.48913755561356,27.51908455008852,99.89563377197568
74,0.24427480916030533,1.4737991266375534,74.28473475638795,23.858751105052523,138.6242132785158
75,0.2302158273381295,1.4925373134328357,29.05891027248845,22.865205990938485,152.29603617855182
76,0.22028985507246376,1.4731558271497147,34.81019149725438,19.581449515290807,90.42277324037228
77,0.2152974504249292,1.4792899408284037,40.43466082539521,30.453427070963514,130.24268386398896
78,0.21052631578947367,1.4705882352941175,44.23265455715631,35.760668315111545,132.25171117503743
79,0.2059620596205962,1.4825389852844257,68.77589509444107,31.37448106978288,77.48132893842367
80,0.20159151193633953,1.4925373134328357,27.38201577207332,32.39022662517153,96.90288660380422
81,0.19764705882352943,1.4925373134328357,16.01994911084017,20.765137008079563,89.0155175809493
82,0.19399538106235564,1.4925373134328357,51.98686934061177,32.71273575049904,121.61404615623364
83,0.19047619047619047,1.4925373134328357,46.102825484239965,33.95345698845538,112.92387417441607
84,0.1870824053452116,1.4925373134328357,12.685015976867922,40.88118614506013,132.03296355387377
85,0.1838074398249453,1.5038444142921725,28.674293338045587,25.951705688295032,92.5109201246745
86,0.18024928092042186,1.4925373134328357,27.154917792388577,32.57799591306039,122.66423905291192
87,0.17619493908153702,1.4925373134328357,53.627417879222584,43.2407396440973,76.47112187106477
88,0.17231897341888175,1.4925373134328357,29.630545807003628,29.224101111353217,56.338914364794036
89,0.16860986547085202,1.4925373134328357,17.823048095704547,30.767428233567315,79.8093745302887
90,0.16505706760316066,1.5148063781321153,26.312328153775283,36.10052332118467,68.69456345679173
91,0.16165090283748926,1.5151515151515151,38.261502462972594,18.324220655745773,68.74208266293881
92,0.16165090283748926,1.5155020823692706,28.93057518595705,25.340667940924906,74.11651394685927
93,0.16505706760316066,1.5014675999096947,28.503596976727575,22.36204860896126,69.5710226412927
94,0.16860986547085202,1.492042440318305,43.80962519028788,31.903866264959053,63.83843136872235
95,0.17231897341888175,1.4815627743634736,19.358371764345918,33.05057019633445,96.70939603148413
96,0.17619493908153702,1.4925373134328357,24.0010693861929,33.0318447335049,112.88381730461542
97,0.18024928092042186,1.503504408772323,25.75180448204162,19.426883098266895,103.51908608035346
98,0.18604651162790697,1.4927048260381623,34.096035811586404,48.52678631377054,105.98000477789029
99,0.1932367149758454,1.4818880351262382,40.82330628345565,20.708788744886157,73.86508342540625
100,0.20100502512562815,1.4705882352941175,38.87097867280026,34.67553455676076,109.34902762820816
101,0.20942408376963348,1.4580672626649602,46.32887865192758,30.206525233285983,103.80018351481048
102,0.2185792349726776,1.4705882352941175,13.895332651694648,40.91149341972191,152.29944050650704
103,0.21153846153846154,1.4705882352941175,31.708532769507034,30.428298163375384,165.91730601341152
104,0.19642857142857142,1.4705882352941175,21.745752579428178,21.18443759918183,162.20916190402986
105,0.18333333333333332,1.4770240700218769,25.755053734727756,18.427143875545895,133.25745561713214
106,0.171875,1.4925373134328357,30.3247163390205,40.96540815708652,127.44571837453343
107,0.16176470588235295,1.5086206896551775,36.531321787051695,30.976926362394696,173.27161990722325
108,0.15434083601286172,1.4925373134328357,21.50612429631086,37.34299944785751,108.26918476010705
109,0.15841584158415842,1.4805138253864676,28.601892441872955,20.357260415114325,114.5068597483832
110,0.16271186440677968,1.4649272882805766,16.79614370834918,28.42815800771112,95.81620035887686
111,0.16724738675958187,1.4492753623188408,39.47336255128667,47.11985373282061,131.99501858736713
112,0.17204301075268819,1.4492753623188408,40.524228133882886,18.191481951252662,145.10231220755074
113,0.1771217712177122,1.4683815648445924,21.80480008113105,27.709252720706246,180.8511966352213
114,0.1822125813449024,1.4492753623188408,9.190909483546141,41.7013279005741,103.33568114181588
115,0.18543046357615892,1.4705882352941175,29.512383448939545,43.82276322276198,191.57161229692426
116,0.18876404494382024,1.4705882352941175,28.33964146276226,21.534334436712946,212.57701213916633
117,0.19221967963386727,1.51378219611386,33.613063529586256,17.699511265010702,145.6806440840072
118,0.1958041958041958,1.4683653638522887,41.60232111774084,50.70889517652181,207.6520905080768
119,0.1995249406175772,1.4925373134328357,35.96831972520714,33.9671199851257,186.64782195913412
120,0.20809248554913296,1.4925373134328357,46.34775489618317,25.743123976985572,139.61807541034287
121,0.2181818181818182,1.4725130890052414,42.564722215095905,35.50393011742616,153.82608428507638
122,0.22929936305732487,1.4705882352941175,25.399164450961365,42.30830652944262,151.0637654342397
123,0.24161073825503354,1.4894086496028178,22.27266714747329,31.072343799951682,100.29905791113865
124,0.24382207578253703,1.4779943069848847,38.476890141558634,36.213763562653966,93.94885273045105
125,0.22874806800618236,1.4925373134328357,21.692323479674723,38.994835565729346,156.49426249693758
126,0.21542940320232895,1.4925373134328357,34.70355472584185,43.93620004639846,125.18911873495513
127,0.20357634112792297,1.4925373134328357,32.52674758987708,28.29249325441966,97.50176623135849
128,0.19295958279009126,1.4925373134328357,7.2714692468865785,32.278010623461796,136.40278909525279
129,0.18803418803418803,1.4925373134328357,12.302390248081295,32.44049371310683,98.98997418714916
130,0.18487394957983194,1.4925373134328357,20.570641698782246,45.3587155123162,93.1861985587094
131,0.18181818181818182,1.4925373134328357,53.420375693021434,27.20660807896447,93.62362284541872
132,0.17886178861788618,1.496010638297889,47.62646114069265,36.12514778954525,191.91308760242242
133,0.17600000000000002,1.481804314665494,64.99758509200275,25.954842479866993,165.63980626456134
134,0.1757770632368703,1.4925373134328357,53.64702930028901,29.844347139687912,165.98745093849504
135,0.18365061590145576,1.4925373134328357,30.599415072946368,36.54097792529912,133.11723050137513
136,0.19226260257913247,1.4874394006170153,26.570510233292598,41.60502057971566,113.30764832564255
137,0.20172201722017222,1.4705882352941175,39.50053063870908,16.49992485559411,95.20698830010528
138,0.21216041397153948,1.4967364393427824,70.5977583896958,18.63556737096778,138.00697775234022
139,0.2215743440233236,1.4696276943174489,37.2025313785924,18.304005584059453,125.95856996162782
140,0.21652421652421652,1.4890800794176071,34.44429441434426,34.002203234403346,213.76371363909206
141,0.2116991643454039,1.4705882352941175,31.896241099286122,40.27076815003773,134.06107070729726
142,0.20708446866485014,1.4728343879554844,36.64140437942301,28.835902199069622,231.47509838626266
143,0.20266666666666666,1.4796142042963643,45.919528419781976,21.671574433350212,215.02514427643845
144,0.19858156028368795,1.4925373134328357,43.01382865067158,39.49354062384468,192.60100921483706
145,0.19489559164733178,1.4802631578947392,49.787952254706205,33.05531388469526,252.78705823685235
146,0.19134396355353075,1.4699570815450667,27.5425105603177,27.588612553431968,229.9290527195935
147,0.18791946308724833,1.4702702702702652,48.8809806830962,24.54980991293022,232.2660957921629
148,0.1846153846153846,1.4925373134328357,47.366905619417,18.460629477880847,193.3300687216816
149,0.18367346938775508,1.5264507107900238,60.242715613882964,29.164223364563895,202.46425777041458
150,0.2,1.5625,39.22179393670223,27.100579333602045,160.5111583474567
151,0.21951219512195122,1.5482477196351425,37.1951689030291,22.547146168683604,92.21896958713967
152,0.24324324324324326,1.5384615384615383,39.67258492196434,35.951071873724,122.48972448051481
153,0.2727272727272727,1.5229016507788902,62.300655909561655,37.393023133222634,78.53184865683366
154,0.29850746268656714,1.4925373134328357,59.13656964480014,39.68975939458172,90.74997633749692
155,0.3215434083601286,1.4639397201291726,35.84995589072138,27.915497550578998,75.14807744231206
156,0.3484320557491289,1.4515787243059968,62.870332692990694,31.61567532318346,74.34589782051535
157,0.34069400630914826,1.4465408805031454,35.934184336357525,32.44621249526906,70.55926624419595
158,0.3025210084033614,1.4699616531742654,68.91809127326515,41.26807142601431,48.82346116145918
159,0.27204030226700254,1.4380302089799295,38.12851469500358,24.291984385308773,141.96968177033827
160,0.2482758620689655,1.4492753623188408,68.28676019383686,19.083375991207635,84.13404429968685
161,0.23529411764705882,1.4705882352941175,25.729841152901564,39.932533441480416,94.57647785306746
162,0.2236024844720497,1.452810180275716,73.35838906173342,38.50425708450809,216.8630682568656
163,0.21301775147928992,1.4705882352941175,35.24506750087798,20.818680815097782,145.8996375898098
164,0.20338983050847456,1.454352441613589,28.403475546927375,23.835173549915044,190.35539952757682
165,0.20571428571428574,1.461245235069887,27.631386977812518,27.147506883474694,99.24997801500572
166,0.21556886227544908,1.4422079269557995,45.389756400162156,32.63361058839362,201.1061586265879
167,0.22641509433962262,1.4285714285714286,57.36281436523217,20.672220281781343,227.52840843696416
168,0.23841059602649006,1.4285714285714286,40.350574128211,33.71562044347317,203.3759909763476
169,0.2482758620689655,1.4485202167569828,30.7331605849065,43.01292025062452,165.92804948445294
170,0.23529411764705882,1.4492753623188408,21.928922200812334,23.399739042434803,111.53166325653754
171,0.2236024844720497,1.4677523034069002,49.95135298134766,26.13027545918216,129.31551892803364
172,0.21301775147928992,1.477994306984892,42.788094784210244,28.81521441354542,101.33591839573869
173,0.20338983050847456,1.4925373134328357,23.576438664230846,23.95903638267528,118.58546509626318
174,0.20571428571428574,1.5075946497392871,26.58766543340965,30.58365367215324,158.54723703160133
175,0.21556886227544908,1.5113636363636378,22.721706498421906,39.74843360614579,208.60447533769832
176,0.22641509433962262,1.4776707530648003,50.7264355684467,33.064743531809206,240.53742658404823
177,0.23841059602649006,1.4925373134328357,29.73847822360136,25.96001617834819,82.12609366452406
178,0.24790619765494135,1.4858023332599577,10.07666526901679,31.811132838045616,134.01045217071598
179,0.23233908948194662,1.4877672470795704,32.88550038360438,48.44701545056726,230.76652364456618
180,0.21861152141802068,1.482300884955758,44.85738977304347,45.18212718926382,152.05064847211145
181,0.20641562064156205,1.4648437499999916,37.98405428592632,27.592749375320917,108.36087473242668
182,0.1955085865257596,1.4874394006170086,60.95437282322263,20.04595821590635,202.40914153206035
183,0.19136522753792298,1.4705882352941175,33.43279423613102,19.940393677086192,163.05297248516064
184,0.19316843345111898,1.4884233737596442,24.228172308560882,45.43756561114122,150.33333857464544
185,0.19500594530321047,1.485148514851488,40.57778033858326,21.66442789748161,81.36241349727624
186,0.19687875150060025,1.4551679863043083,37.64730041657063,28.499998627373643,98.55274579535357
187,0.1987878787878788,1.478965819456613,71.554312919762,15.880678767274429,287.3812840844032
188,0.20077220077220076,1.512738853503181,44.26101653150139,34.10173257447921,192.10965806504026
189,0.20286085825747724,1.4925373134328357,22.77753505393514,35.04397474265677,232.62156751785204
190,0.20499342969776607,1.4725130890052402,35.32838182722421,24.715902849168398,151.1662652646816
191,0.20717131474103587,1.4925373134328357,52.01627258646241,25.703198168658126,133.7327544242253
192,0.20939597315436242,1.4925373134328357,18.17939271601842,31.202083663019906,189.9024744536837
193,0.20939597315436242,1.4925373134328357,46.70927797084258,38.633537952920896,155.03614296275342
194,0.20717131474103587,1.4913831197525342,52.93688357855153,31.689173513971934,167.06620037131506
195,0.20499342969776613,1.4822134387351844,13.91815854518743,35.17987263764052,205.45868644675608
196,0.20286085825747724,1.4925373134328357,31.642121057885443,34.74531499685013,190.20611929755904
197,0.20077220077220076,1.4925373134328357,40.028485492642865,20.911458915454265,212.79989999081573
198,0.20413793103448277,1.4925373134328357,35.60920419604501,27.803975633108625,227.89669173296784
199,0.21112696148359486,1.4925373134328357,29.410175507131697,26.145475791379297,148.53222125571244
200,0.21861152141802068,1.4709086947047192,14.852220474698779,36.007028533186215,129.77228619830086
201,0.22664624808575803,1.4822134387351684,19.41134062045955,34.09281636749804,128.35296880256973
202,0.23529411764705882,1.4913831197525502,48.7133416510695,27.78646698458751,209.46772856296312
203,0.22929936305732487,1.4705882352941175,35.35374940284571,45.493854655045546,236.9147394242914
204,0.2236024844720497,1.4705882352941175,45.99047983343177,42.26797224255004,285.01047209678245
205,0.2181818181818182,1.4568268821778056,33.68400049345427,32.75918513832693,136.87261568038602
206,0.21301775147928992,1.4705882352941175,31.144282985280388,23.08448425689197,165.02433545746968
207,0.20733249051833122,1.4705882352941175,56.049596089396715,33.52872230992994,219.0457703084096
208,0.20122699386503068,1.4874394006170202,77.45908928643499,55.30090206539139,156.4667920531537
209,0.19547079856972585,1.4705882352941175,44.951801105725316,49.39312262767124,135.9270879226215
210,0.19003476245654694,1.4864567275930496,49.17378123062706,20.861122745974736,162.25910150831385
211,0.18489289740698986,1.4705882352941175,66.18727393287519,32.48190184256944,100.56040395950421
212,0.1807465618860511,1.500896057347687,37.795544523112454,17.610467469146656,182.1112801835491
213,0.17794970986460348,1.435108153078219,46.88640704079441,45.41480714444837,216.06131345620182
214,0.17523809523809525,1.45744680851063,20.329761410629384,35.02597435549897,112.90624986793365
215,0.17260787992495308,1.4705882352941175,54.99582753695441,35.16760315663282,131.32985664377756
216,0.1700554528650647,1.4825389852844362,24.550872847408744,30.307524561090236,194.89138353006445
217,0.16757741347905283,1.4712292938099474,25.045476978360696,25.17205333935106,139.86349779141915
218,0.17177914110429449,1.4812376563528549,29.745198560421564,26.349494914648176,178.1423088549431
219,0.1806451612903226,1.4923723192571388,43.372812371868704,28.815851688096703,74.05794036569891
220,0.19047619047619047,1.4705882352941175,43.89796429366074,36.11804472463027,186.24329706989943
221,0.2014388489208633,1.4705882352941175,27.85775807388191,39.4679147909767,173.4440246400253
222,0.21374045801526717,1.4831905075807428,21.73463353567678,32.62766290284856,153.0417303369267
223,0.2222222222222222,1.49039523073527,12.994607385189054,30.683957591372508,131.14507629338124
224,0.2222222222222222,1.4624252775405548,30.923537815865302,25.601540518838487,92.56941675174974
225,0.2222222222222222,1.4492753623188408,37.075823233238054,25.431838101126697,105.65609682038814
226,0.2222222222222222,1.4492753623188408,14.215507165839087,35.39637808286704,183.50073994965427
227,0.2222222222222222,1.4649272882805904,46.077746991399955,40.13073908393649,160.4987800018976
228,0.22742474916387959,1.4534266921281647,33.94245946743964,16.091188984761903,149.81419027771958
229,0.23367697594501718,1.4565171167339912,45.54145057458817,19.93504875828991,141.128168247581
230,0.24028268551236748,1.4705882352941175,55.29911742396829,19.38180684579346,119.11215316461927
231,0.24727272727272728,1.4705882352941175,29.362860319945348,21.939204164719136,121.29869806781122
232,0.25,1.4718709114696982,37.89020728037918,44.72388597276797,219.76238797387612
233,0.25,1.4805878482123191,27.783485632239113,33.89941961397198,244.1062082484154
234,0.25,1.4925373134328357,36.61852154161321,28.904013063777064,247.34323011707184
235,0.25,1.4925373134328357,52.83882863928486,36.469107588350546,243.4345128323833
236,0.24765478424015008,1.4705882352941175,58.826657703510946,38.88775377421043,155.08581984872123
237,0.24399260628465802,1.4705882352941175,46.43715189208775,22.068989439120404,185.440984327376
238,0.24043715846994534,1.4705882352941175,26.289343825361044,49.08474566965753,173.4410566906492
239,0.236983842010772,1.4705882352941175,34.48314282180788,13.966516433687838,274.88688405040045
240,0.236983842010772,1.4705882352941175,35.24302202277185,37.18874380160722,142.09918729937212
241,0.24043715846994534,1.4630499786415987,27.472887417009733,35.32542958544322,257.3512061018602
242,0.24399260628465802,1.4664953971312424,49.23216011139648,23.739595227015347,182.3088978723015
243,0.24765478424015008,1.4705882352941175,29.022147863519184,24.40021022338634,278.5566372553357
244,0.24858757062146894,1.4871116986120358,12.568318875107806,31.43199393203669,200.58376621937555
245,0.2448979591836735,1.4871116986120216,32.82107045114314,25.135935285168035,177.7862160406192
246,0.24131627056672764,1.4864567275930485,26.992248683933685,40.81232758688573,140.2396185476398
247,0.23783783783783785,1.5099909173478576,28.276313083967402,22.389298908138358,260.0004787987663
248,0.23800383877159312,1.4925373134328357,21.997441248579904,30.846090047094748,186.34128943271688
249,0.2494969818913481,1.4925373134328357,25.538517881360043,34.39713153411362,128.21761002512068
250,0.26215644820295986,1.4770240700218722,43.12309426093878,18.476743855958098,106.79002719039173
251,0.27616926503340755,1.4744429882044652,33.311671686577554,49.49495727177453,119.28228497254753
252,0.28169014084507044,1.477994306984882,23.9238612647353,41.66771750643902,82.41256492335275
253,0.2714932126696833,1.4734774066797736,62.00004330205001,21.324496916408403,125.47441775835415
254,0.26200873362445415,1.4789658194566075,32.67893618891507,12.789587516023191,66.64110135493084
255,0.2531645569620253,1.4725130890052447,29.946214545205503,23.460822208902588,88.54072438102375
256,0.25,1.4677314914741897,26.898009178212973,31.892044317200547,81.49510474169023
257,0.25,1.4917127071823097,42.57344251724197,33.363021778380805,101.69337199803763
258,0.25,1.4705882352941175,44.159323971998276,34.493723584474075,96.7400697566586
259,0.25,1.4705882352941175,32.14971277414496,29.968104962813978,177.60876479511845
260,0.25,1.4705882352941175,41.52626823761665,30.521679367616112,179.8101800005438
261,0.25,1.4705882352941175,52.82104374699172,41.68988145580106,121.04312039366914
262,0.25,1.4792899408284108,45.85665624630809,25.73879872787977,289.73968194272015
263,0.25,1.4925373134328357,51.988214873343075,30.56981130152958,116.52768355977092
264,0.24548736462093865,1.4786418400876302,45.14926855873653,29.047958392218483,120.15500769687249
265,0.23859649122807017,1.4925373134328357,42.01697701085331,26.183882140091292,119.73769032639281
266,0.23208191126279865,1.4779943069848975,40.105858929616495,54.9271269855858,128.4696037205951
267,0.22591362126245845,1.4744429882044507,60.406949975138495,28.39241320769643,95.28350096526867
268,0.2222222222222222,1.4925373134328357,36.53574080990367,30.597796149474693,71.53952683085201
269,0.2222222222222222,1.4750874125874083,43.02380624233505,25.14123151758888,119.19456472198591
270,0.2222222222222222,1.4864567275930374,57.00493973921231,37.12469401430257,96.13667002670088
271,0.2222222222222222,1.487111698612032,46.1985901506116,33.788495242956174,116.22849119555752
272,0.2222222222222222,1.4757324005247074,32.074398410370755,29.407911989713757,107.63489360524014
273,0.2247191011235955,1.4925373134328357,43.10001378277719,29.366176812434816,143.04190840525646
274,0.22764227642276422,1.4705882352941175,46.79042196083808,29.944712332371935,142.92063093949352
