time,breath,heart,delta,theta,alpha
34,0.015776015255926843,0.017067914037669427,21.10855777593663,3.8855270129418873,598.8957106945073
35,0.016231884057971015,0.017646360474430547,21.866046321653222,4.153839204286843,598.8886979453038
36,0.01671488267438123,0.01826539042647547,21.736536454150986,3.959208124809614,599.1370168659735
37,0.017227507217568272,0.01892943014455799,21.887426602334227,4.341962058976159,598.3025696292851
38,0.017772569698745178,0.019643573829602648,20.99396257708231,4.236680043514159,598.4443607589849
39,0.01835324963444764,0.02041371457009002,21.527653959320197,4.253369472428151,598.7497457051338
40,0.01897315611154548,0.021246707337270986,19.84530631136865,4.328253934076418,599.0788391147729
41,0.019636402869935805,0.022150573584720973,21.472754422816138,4.424329434480143,598.2666130718712
42,0.020347699703728548,0.023134760392084112,20.21853821091145,4.673822861572764,598.8353573930859
43,0.021112464474218433,0.02421047190623601,21.593586880955783,4.729263875055709,598.5997775289813
44,0.021936961369252096,0.025391097758996287,20.643330092370476,4.939316093711931,599.0163729696751
45,0.022828472875509567,0.026692773261933922,21.69725766961197,5.1805783435491914,598.3772954231288
46,0.02379551546054782,0.028135121222428883,20.827288259686508,5.221185932117907,599.1651224126832
47,0.024848112499146698,0.029742248002631522,22.570649745734446,5.367312958387515,598.5345777610308
48,0.025998142989786442,0.03154410163964722,20.76956412284398,5.3150324113391685,598.9419854602749
49,0.02725979180708455,0.03357835547021367,24.42917243062037,5.678896086487375,598.6080709899727
50,0.028650137741046827,0.03589307083849776,22.98936471183023,5.6220453833583655,599.0364386818911
51,0.0301899311603218,0.03855054266244103,25.065764742950726,5.9838918589012495,598.8217942660959
52,0.03190463669033219,0.041632989916612566,23.760131454101888,6.112186260292077,598.2735578848824
53,0.03382585261592788,0.04525121339250556,27.044413282994768,6.552736156292671,598.7697629138847
54,0.03599327598141006,0.049558197702529616,26.02504033529723,6.84677369630191,599.0331488972056
55,0.03845747490755414,0.05477129817409741,30.832526695428374,7.133414444754255,599.2385046562727
56,0.04128388340705455,0.061210077163636106,30.026598728386357,7.489401099431379,598.7225485506888
57,0.044558697514995714,0.06936438332103531,35.89179430015861,7.863334257699134,599.0655893045118
58,0.0483978194389044,0.08002521073512432,34.94191367625736,8.548963924519953,598.9569608720783
59,0.05296086134148116,0.094558145703759,43.401130420703986,8.845817904500608,598.6374824759655
60,0.058473895582329294,0.11554088551825405,45.11703973719445,9.693461306155513,598.6603717960018
61,0.06526806526806525,0.14849162917320213,56.496554025877586,36.40559238533429,446.2087757673003
62,0.07384865084195574,0.20773489353143476,35.86934612792237,19.8848956946486,60.39846394454955
63,0.08502686288250406,0.3456297808991401,99.14100240371526,84.1570971675083,85.78616158113488
64,0.10019267822736028,0.7775262154432795,50.529202563833095,42.84411037518556,90.05772840215786
65,0.12194304857621438,0.75503355704698,247.18264648346099,36.391719108861736,66.82560341143513
66,0.15575524176294392,0.7518796992481203,367.38637291514215,48.76204891760989,82.33637531082788
67,0.21551213735938424,0.7634257634257633,109.2001112915275,46.34058334308216,122.83989415009671
68,0.2691415313225058,0.7731958762886598,235.1817374976495,81.34420843382912,69.49797397199585
69,0.27423167848699764,0.7385854968666072,85.94421321030347,87.07746057428182,171.68976718575385
70,0.27951807228915665,0.774414755261291,530.6349983082342,66.48618105181053,174.5822249838518
71,0.285012285012285,0.7966230798527358,561.1937202453691,39.320017688120764,125.39668684357855
72,0.2857142857142857,0.7808308994456701,275.20466027190696,73.79184345358749,106.41734476054158
73,0.2857142857142857,0.7309374826956084,118.5035758059301,70.97168693097866,65.92233535699911
74,0.2857142857142857,0.7737850987748397,234.87792312256806,64.51916395909495,91.13997892263777
75,0.2857142857142857,0.7615836288587876,173.73383424057664,46.51399027513799,76.86532664613883
76,0.2857142857142857,0.7439897840208761,148.19748503596625,33.04812009057482,40.928740191716535
77,0.2857142857142857,0.7535641547861505,434.6372812001108,88.94559833871368,78.25276407193044
78,0.2857142857142857,0.7855626326963907,319.53926266663365,42.177894306879665,106.1006616169072
79,0.25249169435215946,0.7936507936507936,91.16417027885122,68.36541244917639,96.72945803462902
80,0.22287390029325516,0.8294579024085511,255.15636317580243,73.54064311825655,87.47302843152413
81,0.1994750656167979,0.8747349288094521,200.74234290291201,43.82513807118643,66.65728011747005
82,0.1805225653206651,0.8339952343129476,67.84061995361249,49.59589420560458,76.12974502819078
83,0.16901408450704225,0.7541297581996658,124.96698165239427,40.289186578768664,61.919716204298
84,0.19047619047619047,0.7499999999999999,184.0474074126775,47.03576405876116,61.170585683881875
85,0.21818181818181814,0.7426968146558841,136.5953590630159,35.137651898732976,44.83763161203915
86,0.2553191489361702,0.733177646228208,117.50106046715257,42.83680630150005,50.03095886776793
87,0.3076923076923077,0.7494587242547045,321.5906504288433,79.21734424978506,49.87243817344276
88,0.3333333333333333,0.7482764419034809,232.91998527094478,48.23335805056675,47.585629527621315
89,0.3333333333333333,0.755148741418764,88.04911449675502,43.61030102767234,71.42873337496373
90,0.3333333333333333,0.7692307692307692,110.09682410961666,30.76453164079757,78.9719151809593
91,0.2947368421052632,0.7692307692307692,79.27117445639703,46.662825495824244,155.53416354277888
92,0.24866785079928952,0.7152145643693116,113.577140778963,44.35844098345148,77.41953781762913
93,0.2150537634408602,0.7099236641221369,200.58614255517298,56.12267791095164,121.0880432395001
94,0.18944519621109607,0.7525181541344569,1169.6240781751212,152.32986838518363,91.72846172623069
95,0.17879948914431673,0.8043314972458679,868.5848103430321,72.79814493291124,79.19343397454709
96,0.2014388489208633,0.8270369614049417,141.14558732328646,57.60948510452213,39.536174858681214
97,0.23064250411861617,0.812524772096711,344.6640550897007,90.0620783534342,49.57823351907336
98,0.2697495183044316,0.7916640590775395,182.49088487255779,33.40500476676835,135.71621401186985
99,0.3248259860788863,0.7887323943661968,159.34520196418262,72.89066330286923,67.23398770676178
100,0.32573289902280134,0.7987321711568935,88.91102462812086,28.703643275558534,68.1425024108354
101,0.31746031746031744,0.8091353996737355,94.3116391779076,44.43734338461629,64.30971698027871
102,0.30959752321981426,0.8030185758513936,115.73946704954642,25.327666360809413,70.75336648358754
103,0.2936708860759493,0.7842060295374107,383.4667691688721,58.236081081222956,59.50263243513115
104,0.27684964200477324,0.7662376533971854,315.31217051464694,42.888156722345336,69.53992795558501
105,0.2618510158013544,0.7947842285004645,128.49041420640197,37.761163084727976,75.04063075436146
106,0.2505050505050505,0.8,218.37083142804954,37.811416992662544,69.53548574568892
107,0.2546201232032854,0.78582434514638,94.37822144085267,62.572801655155125,96.26786855401966
108,0.2588726513569937,0.776255707762556,155.3317284380592,42.609692415904554,117.2599514100134
109,0.2632696390658174,0.8,154.78967795277467,52.78671613780564,84.84768711546309
110,0.2706766917293233,0.8,56.23797964366645,43.06262167393713,70.8491039527167
111,0.288,0.7960672375515384,140.65585894149655,74.22971719309253,112.30166697043028
112,0.3076923076923077,0.8043591074208608,386.55826254922687,112.60910794808888,79.57532983644437
113,0.3302752293577982,0.8151277143422883,110.98255523252229,45.6868549839627,58.504668982309674
114,0.3420074349442379,0.8016627078384783,131.04295227269506,53.549275026629914,130.20335569288414
115,0.35249042145593873,0.8404814609850564,425.10233060658703,71.47128022044215,88.65545336855132
116,0.36363636363636365,0.8424569884828668,158.66510555568604,81.94684954721374,57.87347166285908
117,0.30933333333333335,0.8150908244061498,87.50818181148479,47.52121080060508,95.94474130431107
118,0.2691415313225058,0.8286133836794589,340.74298084609785,155.47549209296295,107.448908061859
119,0.23819301848049282,0.902630289168436,389.89328683669885,68.89250890233401,115.19545329120389
120,0.22442244224422442,0.9151556619911028,249.7030846537039,70.52611761740629,74.12542668118753
121,0.23050847457627122,0.9514708326408577,544.189345134586,96.9550864737563,72.67043709149361
122,0.23693379790940766,0.8101032970142977,153.85374196661886,52.90850426635933,57.845379863442794
123,0.24372759856630827,0.7819715534757721,50.48277295659578,51.8004263740735,81.21160796382068
124,0.2495274102079395,0.7908227056764178,162.6287828129042,54.453737917303485,86.26540548357491
125,0.24581005586592178,0.7968002015621078,83.94228494836688,60.56468198298229,50.22924253183175
126,0.2422018348623853,0.7751937984496123,486.71328125831764,53.91644883168594,133.4377408475743
127,0.23869801084990958,0.7751937984496123,621.1642626303251,57.76677772933656,138.67475636081667
128,0.23529411764705882,0.7713843221348584,268.039678645974,49.997418784358324,83.00015446777672
129,0.21101992966002345,0.7598434262030863,118.5834130483877,35.633833373094255,85.34470151442355
130,0.19128586609989373,0.752595155709341,236.03637768936952,92.91901560490129,55.537665660907976
131,0.1749271137026239,0.7842548076923059,80.35929970136043,31.229407083563743,43.91174768825987
132,0.1611459265890779,0.7787309119669046,53.44137714232614,59.77439961938299,70.3102994796667
133,0.14937759336099585,0.7781276492672881,169.13811878383385,44.927734152627536,67.22241164481454
134,0.14925373134328357,0.7948717948717926,360.10822229753256,83.58210031570032,75.96994186602993
135,0.1694915254237288,0.8413639733135607,826.6717253890655,166.19656031683414,114.60224093941314
136,0.19607843137254904,0.9310910582444573,977.1835807470825,109.47600366714873,95.31806980337177
137,0.23255813953488372,0.8303848653332426,462.49224078160756,117.51173602648937,108.20066202049276
138,0.2857142857142857,0.8219362662534523,225.49005764197625,44.2895613242915,143.72857659850774
139,0.32704402515723274,0.7842656699957139,107.05746648061293,53.69818667401419,107.37591458222796
140,0.31137724550898205,0.748681299982983,182.18323488465845,107.2230983618288,163.62589384110402
141,0.29714285714285715,0.7750572485467662,174.88495024108497,40.941357119182456,69.26089403234151
142,0.2831858407079646,0.7798749772410025,74.0046451164158,30.578924829283583,123.59743630403332
143,0.2644628099173554,0.7528836865731018,76.62176311146028,33.82038060000552,85.76638408192068
144,0.24806201550387597,0.732956076529237,54.40440652672172,21.8764479758579,69.06970874619336
145,0.23357664233576642,0.7416879795396399,62.83823577905468,34.008522469677494,61.64540778720244
146,0.22335025380710657,0.7816711590296481,122.47545033219637,54.14156421045693,80.47660814424584
147,0.2328042328042328,0.7865725257029607,498.78380628480573,31.988701394185522,140.844057346084
148,0.24309392265193372,0.7649513212795556,1633.1777327474983,63.75249308630765,105.609818800803
149,0.2543352601156069,0.737935990271405,773.2660823800292,57.605161430082916,64.2099190157091
150,0.26666666666666666,0.7589108066624969,314.49934458265693,70.33404595258877,106.54263437011394
151,0.26666666666666666,0.739986795774649,227.63590298149765,74.18537606678692,83.48729390486929
152,0.26666666666666666,0.7229355882659987,53.73305447660844,28.325302142595795,116.0650605762988
153,0.26666666666666666,0.720911741319904,152.3425907200264,28.992828857032677,56.15208637409091
154,0.2692307692307692,0.7445934848070075,195.78679444015788,56.11800833466154,68.37080885178256
155,0.27999999999999997,0.7402533311399906,109.21142472813953,36.79042331585224,97.15107062916987
156,0.29166666666666663,0.7370266863937741,114.83251906122592,47.43246580110261,61.89117250247871
157,0.30434782608695654,0.7573207674183786,61.842080761050056,31.868465151104502,68.60378736236447
158,0.27755102040816326,0.7326603712145889,79.28982683630963,31.95285319748754,98.68920474640932
159,0.24548736462093865,0.7172605275335497,93.56401049928478,65.89982992102259,105.10154484205023
160,0.22006472491909385,0.7140647556197147,44.63732786469742,25.762206677320073,66.43883119545278
161,0.19941348973607037,0.7329593564775607,143.5852994615401,45.415097532212755,68.81223018593721
162,0.19047619047619047,0.76131923695702,99.0874965111492,52.53165938636561,95.38079641950117
163,0.19047619047619047,0.7579657914306975,63.997018023489545,61.71183210630803,81.73516600501125
164,0.19047619047619047,0.7352941176470588,47.5029199787324,49.910644489712055,96.18290319880299
165,0.19047619047619047,0.7352941176470588,65.91628161176767,36.339016924520074,72.58680830212921
166,0.19047619047619047,0.7649513212795532,65.17643678385365,58.77283836163158,95.86432306597968
167,0.18791946308724833,0.7948571790487033,45.64152987388188,31.57470831693895,95.09161606246576
168,0.178343949044586,0.7925379503749359,61.70959743403719,36.003299197208705,54.787729874415234
169,0.1696969696969697,0.7302140088749116,86.45385668461496,39.0968229174349,68.38282343408802
170,0.16184971098265896,0.7186219062937794,130.76882484164284,39.90657642472548,84.57542014497164
171,0.15469613259668508,0.7257851675903921,107.9068250834098,46.73433251138443,63.26497705414512
172,0.14814814814814814,0.7456387169386591,161.61095856682186,97.01383727728494,246.82901689299055
173,0.14335910049191847,0.767226404169078,160.4851922361384,64.3995523093806,81.94615364856568
174,0.1475054229934924,0.7651266416510321,113.70842542999009,42.08903649930055,101.49724868520396
175,0.1518987341772152,0.7454414454359051,103.56130205714624,38.52891995543888,63.58858257803551
176,0.15656178050652342,0.7256319594701565,42.20919546393013,43.88043604785548,63.90170960676073
177,0.16152019002375295,0.7294816701151251,157.86752979684533,34.256701619915354,49.762887608109956
178,0.1668029435813573,0.7441706631387454,84.97716740789208,39.52194968237472,62.06413672579552
179,0.1724429416737109,0.766102893511696,78.17765358828325,21.927411978442873,54.352626641161905
180,0.16812053925455986,0.7840146430750469,67.85246601541876,17.26872359305725,41.020166257463636
181,0.16097190584662113,0.769922109047335,65.76099828088404,29.48929920682646,70.24904261001002
182,0.15440640932265112,0.6995987963891744,107.24906941606811,52.08620323612663,85.85453704796758
183,0.14835549335199438,0.6711409395973155,61.51994330566146,34.755778981260924,67.42769458738448
184,0.14276094276094276,0.672141677371993,63.058846439154806,17.2972792392493,57.0364764360634
185,0.13757300454250487,0.6879226145755053,68.79023431422526,40.51956491264653,86.06224107345963
186,0.13340870548332392,0.7048216776250229,74.4338024197667,33.01837389982251,76.6695449340611
187,0.13401476433844406,0.7208148341603544,118.45117613945662,46.484037819697484,72.06479263669752
188,0.13462635482030805,0.7284243863816301,137.25970715451413,36.1697481754586,139.9774165055255
189,0.13524355300859597,0.7063774360002033,82.75304274394792,45.03583662728218,86.84950060703915
190,0.1358664363845711,0.6936052975010866,91.889562868166,34.92983178698721,28.28070331732046
191,0.13649508386350492,0.7038108784148305,46.238330859096806,40.923576172600775,53.63855497882661
192,0.13712957582800697,0.7180960196963467,55.39026833679268,46.07507464965248,60.95754099300941
193,0.13776999416228838,0.7379468678255146,59.48118653955414,31.40290854315375,62.16887573702125
194,0.13611416026344678,0.7594202898550717,40.07815149514713,30.619787459493413,36.91016927717695
195,0.133764832793959,0.7683284457477999,68.54946519410726,38.8988549717516,60.97006708031313
196,0.13149522799575822,0.7282988443966715,50.247518086217035,28.28543872288485,80.32055922053925
197,0.12930135557872782,0.7072878136559037,39.106223097814265,21.27636843037733,73.80848659737441
198,0.12717948717948718,0.7070193285859594,36.35589325949049,41.75628843559824,68.37138647346616
199,0.12512613521695257,0.7292759706190958,107.06977340996156,51.92511961493602,95.61458070077984
200,0.12313803376365441,0.7323747183174163,157.0469217296705,56.651562391442916,70.77637225042912
201,0.12121212121212122,0.7374307801962809,61.99475568709359,31.342894826477938,69.27742113366122
202,0.11522633744855967,0.758105901562863,70.79726273789797,54.293905690270414,73.07330438318314
203,0.10980392156862745,0.7762120850250762,49.097176481225105,53.44487531407501,38.46133562709345
204,0.10486891385767791,0.7582309865651873,66.7566334929151,27.098995862113995,70.66084721089834
205,0.1003584229390681,0.7390640340351263,91.70114432158384,41.01764303325963,89.90820129950967
206,0.09621993127147767,0.7360183867790292,79.16141071336094,32.835535544738185,115.71769830679882
207,0.09240924092409242,0.748303104484254,69.00469361397946,45.93104671936596,84.77078353315727
208,0.08888888888888889,0.7549427383055093,83.83220854863016,42.356144585374366,73.56319619378715
209,0.0856269113149847,0.7592817137248105,93.19020826813853,30.089277419696725,111.30855468159149
210,0.08259587020648967,0.7623705408515546,62.68845664157291,34.70331436475212,65.45973225836372
211,0.07977207977207978,0.7494343891402725,46.98355371583072,47.16078842307316,56.93796561313581
212,0.08134805345729228,0.7462686567164178,158.34973511401245,113.05848228562107,100.92357201699875
213,0.08788449466415568,0.7587209302325553,135.46829414552988,76.9149409863291,119.90267594863397
214,0.0955631399317406,0.7868913164228851,72.00677280345329,33.063407080141744,64.26554619559474
215,0.10471204188481674,0.7820646506777899,35.321754094910354,42.289684196022364,84.16206676810675
216,0.11579818031430934,0.7696879643387831,111.07522924587863,38.67373091324202,60.927609372902204
217,0.12950971322849214,0.770649845274933,165.42984328338366,35.25552577980353,69.05027320196382
218,0.14690451206715635,0.7835636722606111,307.4304218287391,114.43769007236394,115.57605495720121
219,0.16969696969696968,0.7933533233383296,500.3312418446986,40.28243652772455,69.59007844096952
220,0.20086083213773315,0.8358454371060512,284.4112700694604,54.3840995418289,61.27895188576256
221,0.21428571428571427,0.8096497025776656,140.009825350465,42.47332632892631,96.92051387444806
222,0.21951219512195122,0.772659732540865,97.95525206952755,38.318942824413725,67.88028233193607
223,0.22499999999999998,0.7588187038556155,82.17045073464678,60.81556348815748,84.28256608078486
224,0.23076923076923078,0.7912745936697987,147.83794537634265,44.006529309969956,67.49077375847413
225,0.23703703703703705,0.8031354407607284,129.62376623097268,30.68821349895796,46.133384717706285
226,0.24427480916030533,0.789342318732064,125.95284270602129,51.2082880783942,111.87605529739845
227,0.25196850393700787,0.7751937984496123,773.6836460828075,64.01285628304473,118.0177661186206
228,0.2601626016260163,0.7775668891201835,399.800536773025,37.176034156766434,89.30844755587238
229,0.25806451612903225,0.7970878051842064,283.7576301243299,64.48450436105819,123.6418817285037
230,0.22857142857142856,0.7872300703217392,184.1179304540957,53.56778125012504,107.93053203698584
231,0.20512820512820512,0.8051948051948005,279.1121270423067,49.30289953245389,89.31085869737599
232,0.18604651162790697,0.8597285067873214,286.3125679462974,78.67561559420584,81.43448953719268
233,0.1702127659574468,0.9059261017485661,751.0507609250338,176.69039634661985,109.64040887793017
234,0.16247582205029013,0.8239576439444122,331.4523426909734,46.9162935586098,57.6838377463822
235,0.1731958762886598,0.7874762808349188,196.21654690847654,35.95664180732197,37.2214365534783
236,0.18543046357615892,0.735696313313649,108.08292501020993,25.92342532739456,63.54579401637219
237,0.1995249406175772,0.7234514442625506,99.58243678173002,40.76794706324379,57.506622548031274
238,0.21593830334190228,0.7532363386413089,333.90448457916654,102.99352736550293,104.58569468432853
