time,breath,heart,delta,theta,alpha
39,0.013794960489658958,0.01505575572685111,50.1912283110802,2.764904968946149,599.0501986402603
40,0.014090317666846498,0.015510007668012001,52.51154553402367,2.844726812004776,599.6543649389907
41,0.014398599055227059,0.015992523112586927,50.26576193017124,2.7589931116523,599.1554169950613
42,0.014720671934574792,0.016506024586073614,53.0295472697203,2.8639061249226883,599.4354817020321
43,0.015057482958591922,0.017053595882501427,51.02532367021103,3.013690254685205,599.1470740194312
44,0.015410067447967885,0.017638744044209308,55.04182406369878,2.8034773451390724,598.9110543105488
45,0.015779560020376008,0.01826547455501956,52.14316368629741,2.843741917814649,599.0271744577994
46,0.01616720678731384,0.018938383154321142,55.14872045190299,3.137922410353674,598.8012275105517
47,0.016574379394014807,0.01966276872226434,52.85863429626356,2.9884919916965003,599.158234588729
48,0.017002591235751395,0.020444773102174085,55.934186457383724,3.211587837391031,599.145229882271
49,0.017453516254569756,0.021291555669990792,54.49836752445628,3.3346902985607665,599.2312896723905
50,0.017929010808555315,0.022211513160093663,58.24685049513254,3.684419317193496,599.173043873644
51,0.018431139215984726,0.023214559053582766,56.369227245169434,3.915385673547527,599.5370746605649
52,0.018962203715566946,0.02431248224789686,60.730409626579906,3.9355527092318607,599.0644340487682
53,0.01952477975989798,0.02551941255778524,58.685199973587025,4.136973863271724,599.6088881900721
54,0.02012175778358536,0.026852432110366073,62.3449725821036,4.632273682981715,598.6916939497589
55,0.020756392875508393,0.028332388920369326,60.60894959033969,4.959884156582582,598.8847243189534
56,0.02143236415710631,0.029984995196658096,64.81153403584534,5.108872062941094,599.0521979559168
57,0.022153846153846156,0.031842333838338524,63.680781542047185,5.383248936670258,599.4923549663093
58,0.022925595084421956,0.03394496179682618,69.61370093783982,5.860807172272831,598.9508776890284
59,0.02375305383668884,0.036344905697150987,68.05721151559194,6.475234297509779,599.1579392774006
60,0.0246424805283703,0.03911002489987086,73.3557722972901,7.3264444069395145,599.4117155460378
61,0.025601107074900535,0.04233053021450172,73.24328686068094,8.180340633039096,599.3468636769248
62,0.026637336266373362,0.046129012309063126,78.16162678205751,8.6938281152709,599.4208672509069
63,0.027760988724703527,0.050676401712044364,80.05387654029462,9.697948959973779,598.7209446113881
64,0.028983615118480317,0.056218401182509085,85.97291858818716,11.176548429362413,599.8787105595043
65,0.03031889468053627,0.06312139167557507,88.68723220261161,12.819915611600665,598.3312293286275
66,0.03178314920422821,0.0719568928009639,96.01737600024562,15.416796030686742,599.8723922502986
67,0.03339601353892441,0.08366850332957154,101.53652000534436,17.95589851580103,598.3267511426628
68,0.03518132114841129,0.09993355990408569,108.77830592211166,22.54116164376189,601.0161617556081
69,0.037168289756397015,0.1240484247037942,121.39276630018122,29.21450240691734,597.796396068464
70,0.03939313281873835,0.16350321862013134,131.57582610382036,43.18247696937891,599.9349181549687
71,0.04190128660857529,0.2397617470136379,168.90537231033616,64.42102845474474,283.93100140192416
72,0.0447505459432219,0.4493318417073403,258.42938909259436,148.27773333119612,117.60059923346523
73,0.04801557261814642,1.0789660896371842,993.8543116842567,393.82959235793464,414.99788963898175
74,0.051794532799315625,1.0817448251666446,978.8245813360949,613.5490479637593,257.5681657538216
75,0.05621913645380492,1.0504431557063159,276.1962544179567,147.46530164567605,42.643850446498384
76,0.061470303198117124,1.0044070923439554,454.81794735732905,82.86113901396267,21.474740549128406
77,0.06780351234410792,1.0556099684405298,1285.5579513182101,157.0782596129032,42.35307984278751
78,0.07559162363089496,0.9736764849789581,398.75816220642713,51.98113072684516,10.870691839856674
79,0.08540103866128101,0.9652509652509667,131.62525635011988,36.62818117589118,8.570561264033078
80,0.09813600530464893,1.1226252158894656,99.12921339993281,36.31257086871127,8.00041990422313
81,0.10143934201507881,0.9587449157466575,170.73914162944897,44.53386203960738,10.803036352560913
82,0.10313588850174217,0.9979751229389644,926.0071486460896,168.60968184672646,97.50985426771038
83,0.10489014883061658,1.0447597052677886,1612.9704294932392,206.36631239745583,108.84310897916981
84,0.10670511896178804,0.9140846279289341,341.5074925475996,28.891851878962452,17.84893427968283
85,0.10858400586940573,0.9163612129290235,158.0449251518472,18.62346921817631,16.34881918344079
86,0.11053024645257656,0.9615384615384615,213.56300900719089,78.2561221012987,73.80757048800561
87,0.11254752851711027,0.9615384615384615,150.11238889668599,39.432719844322904,44.18474980127723
88,0.11463981409759877,0.9696855582752775,177.72652219024977,22.90032414427817,40.959971221518494
89,0.11681136543014996,1.0054844606946969,191.91456250025277,11.432254140452969,46.14535279108879
90,0.12231030577576445,1.0368539808746107,97.29619472855873,39.88585823926783,36.38927558832821
91,0.1305925030229746,0.9763958669068171,454.5989358286968,44.81368668567717,59.57037284512341
92,0.14007782101167315,0.9423849933005796,262.0654081863166,42.288192048541944,52.58029394404383
93,0.15104895104895105,0.9768417039931385,89.65620704525121,29.724850460169563,36.786807849045275
94,0.16388467374810317,0.9741494012545141,75.36246406710825,24.309733535182076,49.07331729126025
95,0.1791044776119403,0.9683426443202985,71.46623175169648,37.65051710506742,29.781368613569267
96,0.19744058500914077,0.9813639968279134,117.40008326619329,44.66969421885693,56.89508323712402
97,0.21052631578947367,1.008297954457739,321.632459369848,25.936484713584083,42.99666088156053
98,0.224,0.8930817610062882,274.59103702897215,32.41925705899286,37.28525872536907
99,0.2393162393162393,1.012621074258881,255.73325213248864,41.42415476522408,55.68019957459046
100,0.2568807339449541,0.9104058538245545,105.03528305730217,14.327870914160581,43.88827393186558
101,0.2448979591836735,0.970873786407767,79.56141072350577,33.44803157800567,46.228221678346365
102,0.21052631578947367,0.971891376846117,102.6011353010779,25.23232602607064,35.034508542683895
103,0.18461538461538463,0.9878060308157673,82.09008190417003,25.581357426203702,42.018037436309726
104,0.16438356164383564,0.9265005762922256,217.0995986831898,33.71483802163159,47.71941963499975
105,0.14814814814814814,0.8960573476702511,157.13130444832075,26.83357107679431,38.752828101546946
106,0.13483146067415733,0.8992660698443421,193.23751256551367,39.29265097875098,49.09581012751124
107,0.14814814814814814,0.8591707134852455,473.13461698091584,67.57300511313206,46.9633857974921
108,0.16969696969696968,1.2702893436838203,721.1499350994461,167.26386917807628,67.4624806147719
109,0.19858156028368792,1.6530747189773245,1314.9779748196254,574.6218094795229,348.61925238436646
110,0.2393162393162393,0.9791626471155686,739.2018021577037,186.7489642578273,63.34755927632741
111,0.30107526881720426,0.9741476208317738,1562.7438975011123,375.1371984704436,415.414029221864
112,0.2907662082514735,0.9348290598290587,1090.3698362753078,296.36106154424124,203.75192250664068
113,0.24143556280587275,1.0376344086021507,133.45632248669943,46.481750960377624,71.466719533603
114,0.20641562064156205,1.0309278350515465,208.22217248418136,60.53937636409393,39.51300021476747
115,0.18026796589524968,1.1126305320735952,865.5428097300178,154.7303299620166,159.58680498731957
116,0.16,1.0812737642585544,1105.0738686132845,200.37042276178286,86.85828306680718
117,0.14194100042753313,1.0620551601423494,687.4497053653436,182.80973061744092,70.42181886499358
118,0.12754514022281982,1.1170410822886934,507.6416943255635,70.30336649474769,60.59077884075189
119,0.11580048831531219,1.0924674070497338,881.7874548335899,121.96455834177608,71.74792046526915
120,0.10603641009262216,1.0760818985574685,238.63242624875716,42.966747607728614,39.960134380870294
121,0.09779086892488954,1.1075588033797679,338.61861287392065,55.5801830926297,30.543012719962483
122,0.09073517354468436,0.9628933771723813,280.95930935695617,58.199825573425194,33.176210063110204
123,0.08462911037471323,0.9900990099009901,144.69030657177692,29.155052930488882,32.01839286513753
124,0.07929304991640793,0.989668823018249,92.0429362185667,35.454350473409576,34.83715034650065
125,0.07458997977982476,0.9618091395327021,135.74226091326923,41.884337218032144,27.671127518000628
126,0.0704135737009544,1.0407993338884234,73.7907993904074,31.942116234980254,45.523182175195124
127,0.07251347378735915,0.9136065282951948,88.99916792831138,19.453605484681038,34.22377556072691
128,0.07901761879337961,0.955869215651241,91.17255809297993,16.12897072473031,33.82518646428351
129,0.08680351906158358,1.0038571852437925,114.46890400875894,21.91120131636143,26.548997754662686
130,0.09629147690305791,1.1959521619135172,116.9748229957337,22.36916643408781,32.7693447292553
131,0.10810810810810811,0.7749733380732465,94.51046101398418,30.20219104147837,37.17077805728977
132,0.12323064113238967,0.9404134576408436,90.13208252716886,28.337640453708108,28.703947775957204
133,0.14327202323330107,0.9614478273164332,61.0496743961523,22.826665040671017,20.24773040885195
134,0.17109826589595376,0.9645560273213943,68.36243388699509,20.496095000524704,43.09328984632712
135,0.21233859397417504,1.019777503090233,116.94808013007955,26.945477030826613,40.43972043523704
136,0.2515212981744422,0.9526452090270132,283.7740374851592,26.916588092304664,39.688574524370644
137,0.25567010309278354,0.928792569659441,200.80507075908835,19.356058455755655,21.405202254472268
138,0.259958071278826,0.9343346140412161,109.79128568933498,24.696667337041234,30.590899973163303
139,0.26439232409381663,0.9336823734729485,106.39399958757518,30.98997780545587,24.533740144859017
140,0.25688073394495414,0.9333217572495238,150.19244085411563,31.608002191791208,37.73916162248563
141,0.2393162393162393,1.034987062661695,103.19003105554155,18.302265374127682,35.79159777814847
142,0.224,0.9836211500801519,70.19482785151018,23.08686541126175,37.945744320948045
143,0.21052631578947367,0.7456781105429625,49.416950694441184,21.93078479772305,21.31968494626199
144,0.20052770448548815,1.003409644422802,43.79161147369769,20.601324610387326,29.5200929631948
145,0.20485175202156333,0.9328198545143371,228.6287563899911,16.73486246933601,24.915439569694794
146,0.209366391184573,0.9019445593711235,140.32371902030596,25.459707202662834,27.112346898096717
147,0.2140845070422535,0.938500129746558,44.622057462289675,14.54782387990201,22.898187762416725
148,0.2190201729106628,0.9664292980671393,82.80225433466816,22.40471324503335,41.561938375224656
149,0.22442244224422442,0.9217586982863131,58.08800645759441,18.926417387258496,25.697843579575448
150,0.23050847457627122,0.9090909090909091,65.1911804075541,34.62667386591832,28.423723124411016
151,0.23693379790940766,0.952894642215025,32.26529114241425,17.86934527356447,30.438872361061794
152,0.24372759856630827,0.9193054136874436,89.08332490782519,21.214246307278323,40.72203231876253
153,0.25162689804772237,0.8882046423495955,45.93971355225958,29.275247463978687,26.903085142856863
154,0.2654462242562929,0.9009009009009008,82.4242320158387,15.021922870115606,33.03848959342283
155,0.28087167070217917,0.9240693923807783,104.38288125665102,12.368875990362572,26.647285988296115
156,0.2982005141388175,0.9728527749467317,48.75898250666688,25.445653414262498,19.559730844496016
157,0.2982005141388175,0.9105013882083978,155.28505605235955,38.26380071651519,37.212474925293165
158,0.28087167070217917,0.8806184252470468,121.45145621945858,21.382607612930514,45.07025456500708
159,0.2654462242562929,0.93264686022957,66.68176843565944,27.61855093177363,32.544375274358984
160,0.25162689804772237,0.9591781071006431,72.673813228201,25.29489905416523,25.786332567968344
161,0.24672897196261684,0.9457755359394716,63.64535097502935,21.91477200022872,44.89395243664055
162,0.24309392265193372,0.9362637362637368,92.63324521951043,25.717846144811887,39.25993300615316
163,0.23956442831215974,0.9547511312217174,82.45787991848032,10.316082892279592,32.781572358015616
164,0.23613595706618964,0.9891388673390201,77.68951006059127,21.26329183060924,26.757371374737954
165,0.24361493123772104,0.9087066779374531,41.0395933733526,20.132165307242484,32.92387307018338
166,0.25567010309278354,0.9267919394609256,88.77132382453797,20.39746560581662,34.34379859752127
167,0.26898047722342733,0.9289664707915701,75.2705180119458,16.07214975073275,29.4394024173711
168,0.2837528604118993,0.9069920844327157,27.74929163734558,27.077998872859588,28.442960717704366
169,0.2725274725274725,0.9259259259259258,47.03371818019923,24.9129456725789,34.95420921276766
170,0.2588726513569937,0.9408602150537594,67.72505632525751,19.209453282598137,31.212168240240597
171,0.24652087475149104,0.9544008483563187,67.86956504075954,23.64322188861022,32.131531223230056
172,0.23529411764705882,0.8906583483828524,21.40907391571197,13.706600353332048,23.133842769760474
173,0.23869801084990958,0.9663597410885262,63.106403543152055,25.44331615072525,22.395033543156988
174,0.2422018348623853,0.9168602721540011,87.71876795887073,22.549730971016814,29.3676478258247
175,0.24581005586592178,0.894591968911919,72.4713343064742,36.61992718958783,32.07073581780384
176,0.2495274102079395,0.9756320996701995,80.05234713920223,22.048701464311435,44.80411817838255
177,0.25,0.8863654930152877,71.08867580222764,21.8208997871606,39.66582084743734
178,0.25,0.8992086963472101,80.25808664404256,19.4197507089827,27.245809880689905
179,0.25,0.9381850065760602,55.36816632806907,20.797864674722145,35.93335907676444
180,0.25,0.9379128137384435,102.26528876438677,11.599191311430708,32.59170657449366
181,0.25,0.930011246647633,58.75033776609133,15.483324806843159,33.08710612905376
182,0.25,0.9275959804174198,60.268432227081185,21.482902821449493,32.458952672006056
183,0.25,0.9287388247547922,72.32254450294877,17.71053746533789,28.509536312323142
184,0.25,0.9625268666479725,51.77834386005062,25.72869961686582,25.243247562915094
185,0.25,0.9736327215130977,96.17007631092869,28.147862454700157,26.23198737375769
186,0.25,0.927603762188281,67.06649543141127,17.711853780758794,31.385603601545583
187,0.25,0.9281917137794337,49.97382026166289,13.56927351394701,21.48178232786035
188,0.25,0.8875010272002546,76.72344573796953,18.993999680209782,25.654968513282487
189,0.2575107296137339,0.9669621273166714,24.944412317466814,20.363668836839285,31.314627759344635
190,0.26666666666666666,0.9151056882625949,67.44455580766308,20.81212546258437,29.88513898490425
191,0.2764976958525346,0.889722310884139,73.3848606060526,27.514783153286803,22.40730509245853
192,0.2843601895734597,0.9517485613103049,66.64861793289302,17.996608618951058,21.963699170188548
193,0.273972602739726,0.9059029807130434,129.83842102107326,19.362640347207275,25.198504082837193
194,0.2643171806167401,0.9396853146853007,57.841794045023036,22.328653052262858,31.3316910697526
195,0.25531914893617025,0.9381606765327826,66.54309685920916,15.999843262618107,34.73381710793671
196,0.2515212981744422,0.9021144583231243,75.12589231817887,23.32530037629918,39.163754136431145
197,0.25567010309278354,0.94767389135757,194.74541936547254,27.20870601664608,31.258970403186183
198,0.259958071278826,0.9808612440191423,180.6974321100537,16.949860952287263,24.79782385982101
199,0.26439232409381663,0.9511844938980659,45.860226884845176,18.572775159967254,32.42893341810996
200,0.26439232409381663,0.9149357072205786,101.69136267751165,22.80958937394621,33.36128932193519
201,0.259958071278826,0.8904793608521849,65.91092341404868,17.2199546737794,30.779134831431957
202,0.25567010309278354,0.9976525821596287,84.45570502066481,22.099259603746194,20.050430325548266
203,0.2515212981744422,0.9581575246132309,89.47115649140989,27.131376238583734,27.867277270008668
204,0.24765478424015008,0.8807369101486819,55.97220748897887,23.783295816985724,24.448005037301467
205,0.24399260628465802,0.9667024704618604,97.03497294512923,17.542846951136415,35.382705776262604
206,0.24043715846994534,0.9492515516611937,64.45734556258066,23.624387210569818,34.24012275058422
207,0.236983842010772,0.9044142051111894,103.76884714143306,26.926361027461695,21.475943932483837
208,0.23529411764705882,0.9148369926813009,98.20263491463598,13.732619762614398,26.70162275961125
209,0.23529411764705882,0.9259259259259258,60.81094533069379,19.006468784711924,31.933357126438764
210,0.23529411764705882,0.9696458684654197,131.883358627086,30.116423530162578,29.71692670751583
211,0.23529411764705882,0.9795447997695269,39.78686715444489,28.405729090627904,24.833440262958092
212,0.23529411764705882,0.9438162229543252,87.67302374785321,15.831548791619452,27.233456120152617
213,0.23529411764705882,0.910589204779571,65.42148279133794,27.647874338779776,28.684118981995063
214,0.23529411764705882,0.8966416693837547,114.09261972579822,16.779727184247903,29.68812244343147
215,0.23529411764705882,0.9433962264150942,186.0841475238243,27.794984588708065,33.58630056604919
216,0.23529411764705882,0.9511993382961066,72.00861503942505,23.61482516719534,26.744720493907213
217,0.23529411764705882,0.973202969400703,72.55794889315817,20.497927885640074,29.563153187232643
218,0.23529411764705882,0.8821625121398425,125.26540009888619,18.96822152393771,30.354062117916268
219,0.23529411764705882,0.9598450158506412,104.44109550512444,15.284629719105663,25.42609703233635
220,0.23529411764705882,1.0399334442595591,105.40130933802476,24.287968763817812,36.72369928978632
221,0.23783783783783785,0.9379042690815111,158.70537551553113,35.903820021158346,30.824253675589407
222,0.24131627056672764,0.9345794392523364,111.84196452805307,18.426442326823114,31.22671291181309
223,0.2448979591836735,0.9134534433406322,198.4360965739875,24.290845727659875,26.28939957357496
224,0.24858757062146894,1.001742160278732,113.0644464032176,19.050959272060133,31.790435912840316
225,0.24548736462093865,0.9248606071333868,114.52748459196825,20.154039173104564,34.23958082564967
226,0.23859649122807017,0.926083262531856,165.17045705548014,23.860818798252843,32.0840573536983
227,0.23208191126279865,0.9839685130075768,352.04878362487426,34.51009696770446,63.953559939069976
228,0.22591362126245845,4.736842105267226,1298.2884869483853,173.56375996776387,210.7898350797108
229,0.21779548472775562,1.0971026791126277,1086.5453806533908,154.708907157473,84.36909116966841
230,0.2068095838587642,3.405994550409965,1115.5434007369458,349.92422615895026,360.1071116178545
231,0.19687875150060025,1.641192683538285,1440.497901951489,638.3114918863143,575.4623901957563
232,0.18785796105383734,0.9589423703565909,489.32967527394294,65.80586777483913,63.63463990558217
233,0.1796276013143483,1.0311425893135873,338.81104254198,29.366001184970926,38.06967687700814
234,0.17667044167610418,1.0909962834192606,226.09637658465527,24.400006328777266,36.37218247763786
235,0.18863361547763,0.9390099370954715,144.39027910311262,23.503968347844438,42.99682583653177
236,0.20233463035019456,0.9595365257535834,171.63083548837193,31.469364460310384,37.68596463391182
237,0.2181818181818182,1.0502133245815468,103.16948863119809,28.8054540067052,39.04984449928204
238,0.23672230652503792,0.9979736575481412,100.1339865883042,20.049339768419316,34.2415189698619
239,0.24727272727272728,1.0200943202788477,85.20391442278358,21.562561722255783,33.32157044432043
240,0.24028268551236748,0.9603615478768617,81.44407449591966,16.903351822232402,31.66449199895906
241,0.23367697594501718,0.9853630536687894,70.82016990747073,29.558720949588018,35.89074497374348
242,0.22742474916387959,1.0051781906792616,79.77219296737728,37.61636513044345,32.13765422240782
243,0.22335025380710657,1.4457614942527468,65.47677435557479,16.553510367143982,23.532563505162557
244,0.2328042328042328,0.7598458904110077,80.78531623178988,17.13285162704541,31.966221346826163
