time,breath,heart,delta,theta,alpha
111,0.014960261804581581,1.4649681528662417,44.5149521679125,48.3453660030912,85.47789211266176
112,0.015362457993278924,1.440414507772021,37.8666384200031,37.74060683942724,126.00370440511387
113,0.015786877158362113,1.4285714285714286,40.55116537869178,51.984140497068246,112.6895469853338
114,0.016235413495687467,1.4025107885445274,53.607560249579294,66.50495396518423,88.09212998984563
115,0.01671018276762402,1.3854385629657937,55.72820811484008,62.69541071930153,134.95764659479158
116,0.017213555675094135,1.3513513513513513,30.625522501258,66.21870103079685,164.15727207383975
117,0.01774819744869662,1.3416171438861877,47.852365497545016,58.83762479988143,93.88121154554739
118,0.018317115054378934,1.3180865921787708,21.95916163415019,33.806799073137576,92.17999407800535
119,0.018923713778829097,1.3299277787563855,60.121986037105586,45.58323667009137,110.30657031166403
120,0.019571865443425075,1.3157894736842106,57.779824514738195,62.24839568698358,79.73335650338964
121,0.02026599113362888,1.3775130305286658,50.52033831303933,36.59553362876221,94.52103576315318
122,0.021011162179908074,1.3261210957948009,40.935178016973055,37.720656193440355,88.7209878492255
123,0.021813224267211998,1.335232330425493,60.37894361032249,48.90262084368322,107.50031418697732
124,0.022678951098511695,1.3379135780148261,35.413106134160934,24.131769963655735,147.46637232794265
125,0.023616236162361623,1.3496603503754034,23.37809596325771,35.08892195600321,91.5907510368169
126,0.024634334103156273,1.2997974341661032,29.83440874416226,52.348967954829604,87.11574322479349
127,0.02574416733708769,1.346015793251973,39.715289059330246,42.64532869422791,113.21347261022596
128,0.02695871946082561,1.376404494382024,29.411529736638716,56.088969876068234,114.280628886714
129,0.028293545534924844,1.3043478260869572,43.32215992963636,49.16167994444033,177.86979003692772
130,0.029767441860465118,1.3108614232209732,59.861657708878674,69.45268631874497,115.14231316544233
131,0.03140333660451423,1.3380281690140856,32.13430476824075,24.481890792698813,120.79683516918696
132,0.033229491173416406,1.282051282051282,31.41997909937494,52.13784164838951,92.30070132673072
133,0.03528114663726571,1.2949039264828734,32.93746455605842,39.36945617427561,113.24487623460463
134,0.03760282021151586,1.311780636425188,37.13026576373735,33.976160460465046,139.3653539597758
135,0.04025157232704402,1.2601046124583932,49.97945233771264,32.955022796812685,103.31055990073223
136,0.04330175913396482,1.2405609492988137,40.451283980466876,25.0331426711212,112.03305230470487
137,0.04685212298682284,1.3048537234042528,33.31259379334323,45.53992216453633,113.26130314437586
138,0.051036682615629984,1.2523629489603019,21.495054678608913,60.8766146939424,151.80426314088717
139,0.05604203152364273,1.2406187777607618,24.795879205194886,52.6231571421407,127.88821778963633
140,0.062135922330097085,1.2531133250311315,29.54188062859453,32.65683312316986,147.89336721638387
141,0.06971677559912855,1.2673555053277372,27.05213920176931,25.349148126680447,94.51120581853503
142,0.0794044665012407,1.2345679012345678,36.097510635875885,33.92750637340011,103.44624340859701
143,0.09221902017291066,1.252955082742315,31.408850092655527,34.41449887288045,95.78457829615262
144,0.10996563573883161,1.282051282051282,28.793637271359607,55.00887993021166,179.29975876486563
145,0.13617021276595745,1.2377393741242428,34.113408099284364,42.346628964661164,117.85415229321234
146,0.1787709497206704,1.1437095972153235,51.282984568640366,34.95474910806233,100.3764882367741
147,0.22328548644338117,1.0493119266054958,18.589710569391432,31.84841313807815,85.8958191021062
148,0.22617124394184165,1.2049963262307075,71.5944967597063,41.353596604978655,91.81743018468414
149,0.2291325695581015,1.2392241379310363,28.743953855681315,38.288584843405665,104.21983092875388
150,0.23217247097844113,1.185742686736724,34.093640007114395,52.0732158773885,116.30800687946548
151,0.23529411764705882,1.1267970470146358,41.55217100542242,62.86161586172522,127.00407440694707
152,0.1927710843373494,1.2442748091603058,42.84402488573842,81.13431861198217,153.51009443583746
153,0.16326530612244897,1.1950490823730266,30.57039000469342,26.048669733371202,134.7875671590744
154,0.1415929203539823,1.1488181698138136,24.70029356208737,51.153665542585,196.3064901092543
155,0.125,1.0925681354304244,57.811100700251025,83.73329488849856,114.79677756504094
156,0.11188811188811189,1.170368400053198,86.86915232005495,88.3196692870983,132.55716374406077
157,0.10126582278481013,1.2048192771084338,49.840816302878714,43.142022464510895,140.30112615202765
158,0.09248554913294797,1.1788617886178887,29.677193360669985,53.50076343986823,204.57397766721334
159,0.0851063829787234,1.12167300380228,47.80937183781174,72.36559248032913,235.95318617774487
160,0.09288610394397347,1.1665984445354052,57.692023421767665,48.294697334437934,145.52627364177934
161,0.10223123732251521,1.1819834941949932,37.67837295757206,49.48942239394982,200.58700095764186
162,0.11366711772665765,1.1168930067267473,25.39302284100735,43.127775369378625,207.28999487287874
163,0.12798374809547994,1.120378438939374,38.086337959274616,89.46141493472288,159.55747821540027
164,0.1464264962231261,1.25,31.09786233959461,61.701630882551136,116.86002177264791
165,0.1710794297352342,1.2276785714285763,35.80586898011189,43.414421440746594,166.1531419455924
166,0.20571428571428568,1.156881102046278,96.5159241289897,43.916485324914994,131.43043313664901
167,0.2505050505050505,1.1363636363636365,46.6741681374788,40.8330504327248,177.59575282114386
168,0.2546201232032854,1.2379540400296438,53.922625296378094,46.206215997133725,130.1848586035845
169,0.2588726513569937,1.1898096304591272,56.94975874372183,49.23363425299087,103.76763603518168
170,0.2632696390658174,1.157530601383716,30.10981433062732,36.562754717144095,106.970771523142
171,0.2678983833718245,1.1643835616438314,24.152612991882194,53.97742071173072,124.65614447056518
172,0.27294117647058824,1.2114537444933928,39.236267530991114,44.929614352311155,184.3033132410436
173,0.27817745803357313,1.2048192771084338,23.857271216152352,29.437104330282736,188.32114348619146
174,0.28361858190709044,1.1911554921540664,30.642896324648294,68.45919168299099,109.16746675039357
175,0.24452133794694347,1.2884872824631837,50.14311363978909,58.18233110701628,123.87359247323762
176,0.19868791002811623,1.2989203778677487,12.752769343284434,46.806015813375154,122.59662094740924
177,0.16732438831886345,1.2453007518797024,23.014937388841073,46.21710821361361,110.81687508927851
178,0.14451261077027946,1.2195121951219523,21.35335777854078,61.432278257481904,119.181890988166
179,0.1271745650869826,1.2987012987012987,35.44914739406284,55.35166699724982,125.07828069886926
180,0.11355115158007499,1.289302944601565,40.38271816175778,35.16262945046477,119.8096100176556
181,0.10256410256410256,1.296203378491385,38.81078624700228,58.986729630285645,94.79917696419658
182,0.11355115158007499,1.3389711064129752,26.545599992901153,46.48982498716967,140.5644898945247
183,0.1271745650869826,1.2743506493506513,26.826639124513605,54.74674258407909,91.22898648483249
184,0.14451261077027946,1.2108156291784358,45.67182896851983,47.61597903760645,57.8947186560363
185,0.16732438831886345,1.277199621570473,34.75510966908676,35.97487429333449,80.9038462214659
186,0.19868791002811623,1.2048192771084338,29.414125309201005,33.15119481666333,92.23833457047026
187,0.24452133794694347,1.167814229782649,50.71447544897401,44.35026407994496,106.57299883319075
188,0.2585193889541716,1.174289245982678,37.480394399183325,81.87908264523011,60.59192939635988
189,0.2061855670103093,1.2461300309597498,61.192945601072715,59.51456914020744,107.48795273966522
190,0.17147310989867498,1.205621301775155,58.80623011446372,77.62391340094754,170.79717868822132
191,0.1467645096731154,1.1904761904761905,18.377858067063613,36.219603743219714,152.68864207838317
192,0.1282798833819242,1.1388217330449395,50.16049262959297,49.135149719540266,135.2971938883402
193,0.11393060590367685,1.0890264222803963,67.23941246051035,62.33840106442084,124.42150384690343
194,0.1024685607824872,1.1592066470115183,61.1568951242924,68.09006939899474,143.29735949229544
195,0.1016652059596845,1.1764705882352942,64.71578300115753,101.87876152073255,122.3493758163128
196,0.11100478468899522,1.1764705882352942,39.00433228952348,85.85229502474493,140.7204977514148
197,0.12223393045310853,1.16534137647381,54.775623321951386,78.34199021855503,98.94523475266992
198,0.13599062133645953,1.1943927907309377,50.21291341842343,89.71493046475891,152.37039575782464
199,0.1532364597093791,1.226301534757741,28.072798049385483,75.06782177323147,109.30280585729554
200,0.17549167927382753,1.2073027090695043,24.225372372148215,45.772429748254474,156.18537659917632
201,0.20530973451327433,1.1313104891446626,49.06225999464521,48.35731560870808,158.43622180092828
202,0.23613595706618964,1.111111111111113,58.84674260109929,42.87393473065967,118.65325333127
203,0.23956442831215974,1.2442396313364117,62.12584910394817,38.54113840088875,72.39057221695357
204,0.24309392265193372,1.1794730307628825,40.41221414159424,31.90888990533615,107.74703947242878
205,0.24672897196261684,1.1235955056179776,52.555683086989,74.74435639189964,139.39041273982193
206,0.24661654135338346,1.1071472505843318,33.77547739776377,74.18873474062438,121.2253975963892
207,0.2225237449118046,1.1937620756279128,33.88263551528337,69.03285433270847,126.48974076177431
208,0.20271940667490732,1.2044778234377296,33.080075871356996,47.879644388868094,108.2880008800424
209,0.18615209988649262,1.1470896696381772,30.505148367880178,55.48623420574934,131.11139171644606
210,0.1720881427072403,1.1363636363636365,59.37723495339025,49.95442740054554,97.97301705116416
211,0.16,1.10329776915617,35.309483170837524,69.07207934891723,157.44380287280052
212,0.17038539553752538,1.08849976336961,40.64768415407648,76.26362300317018,79.24323416169246
213,0.1822125813449024,1.210948695901378,71.0059059875618,73.21458222564614,75.74021595932203
214,0.19580419580419578,1.2109433398116403,52.835550434743425,24.28734874052057,108.118571753372
215,0.21158690176322417,1.1990407673861005,41.54148654379701,35.715302731779445,125.55221579692488
216,0.2301369863013699,1.142412047254321,45.61872713693183,21.101764466305944,148.64658163663668
217,0.22874806800618236,1.1615269664447603,38.18375857062208,100.59534767055196,158.47009752392202
218,0.22056631892697465,1.2018534607587652,74.81011073001012,87.03325814883796,105.9742132956995
219,0.2129496402877698,1.1685455045367108,43.282366190589975,67.53211899107336,128.26494194532415
220,0.20584144645340752,1.1627906976744187,52.110938611954865,50.88192597418853,101.78078305001131
221,0.20253164556962025,1.2658227848101264,100.00758061330511,38.23992230151016,108.61604049807738
222,0.22535211267605634,1.0002643870627625,298.5839873029155,32.954580759217706,80.20824927794733
223,0.25396825396825395,0.8050089445437101,473.1999025906513,36.5223378620026,38.81707026083413
224,0.2909090909090909,2.2139303482588235,225.20656597462659,9.84597348114669,19.79853404286858
225,0.33121019108280253,1.5561407708882742,80.53628070844864,24.357103293946142,74.13261343478425
226,0.3151515151515152,1.7173571054010828,76.73401638635939,26.18709192642786,107.64149739241775
227,0.3005780346820809,1.225716928769624,81.46382340148807,25.855862220071796,93.43957279192819
228,0.287292817679558,1.3029315960912242,128.25412897429158,31.68945199536869,69.72507695283483
229,0.3116883116883117,1.5624999999999416,179.82771007612703,34.51305783260099,104.72473592142512
230,0.34782608695652173,2.222222222223086,72.22260588410053,47.70248878164118,243.84727030743838
231,0.3934426229508196,0.4490930368636427,475.41489050300856,62.230457949793944,174.0506130336528
232,0.2982791586998088,0.7721327967806254,647.0398962930872,56.23175362163705,100.8891784262553
233,0.23111111111111113,1.4791063301612883,258.5218859049709,45.55540799521392,131.56942766882526
234,0.18863361547763,1.2032647182382443,234.85719739252943,63.66157833395718,321.2783484770808
235,0.15934627170582227,0.43245691607535197,388.91274485446246,51.36866079319081,271.0664321588683
236,0.13793103448275862,0.3158355063895745,751.4859283659624,67.88895615929769,183.44007676832243
237,0.1400381922342457,0.6302317313595965,418.75364540793055,69.7677996715007,103.604449835057
238,0.14221073044602456,3.9033457249057317,435.09891800700245,16.86237945642302,54.98314075443277
239,0.14445173998686803,1.070522017437389,392.0726505299753,38.62749923969968,78.8142723732969
240,0.1467645096731154,1.3653380312703467,551.9815116742757,46.88230803206772,87.4292489769785
241,0.14915254237288134,1.5515151515151413,192.73739703258838,62.742788249141604,110.76080922518939
242,0.1516195727084769,1.3206501662357466,320.3295388295753,59.05293435581478,89.63808483072731
243,0.15704387990762125,1.925795053003707,166.58286898125752,35.52266565859723,99.78413525440129
244,0.1883656509695291,1.0314875135722894,166.21378389916575,32.69012308491286,79.26885380623439
245,0.23529411764705882,2.032608695653318,417.1369866279628,53.78732828572571,100.21434616094173
246,0.3133640552995392,0.4605911330049857,257.2353129269624,37.253545794029726,101.7612871882157
247,0.4689655172413794,0.25972222222224145,124.73182844378809,61.959799961427095,259.91165085797587
248,0.2840512223515716,0.2107544294151125,103.59976685966362,40.23265857480546,171.5973842517311
249,0.1901792673421668,0.3499130159733935,73.4247863720672,27.92952268673163,95.02830259300745
250,0.14294083186877563,1.0300279329605952,41.89928516949651,25.00323594179494,86.02080834272692
251,0.11450023463162837,1.9431089743592829,54.20965779689721,42.74932429498199,132.10977184664975
252,0.09549902152641879,1.684121143504317,60.51207284800657,31.773133385272207,155.1100418456861
253,0.08190668009399127,1.3181019332161759,64.93074726068487,28.129166532461102,79.1063561225157
254,0.07170143990596532,1.2588512981904074,45.734209801710975,32.61552042200175,79.81907643218241
255,0.06375751241181082,1.2490241998438663,42.40326683387938,30.333613337792745,78.8987289598084
256,0.057398259233121626,1.2658227848101264,42.314321117107056,39.75221575353688,121.07033845836933
257,0.05219251336898396,1.250196571788019,39.20970811595918,24.432488622443294,114.5510346487681
258,0.04785252010198078,1.2195121951219512,28.45444162765868,28.30906543763966,121.64217197659788
259,0.044178888285352165,1.2261170452835841,76.32412345919434,37.30864000156614,115.57257354229704
260,0.04102909029762906,1.2449737086297537,60.97317842557835,28.87662913824914,99.97041430265075
261,0.038298540260555645,1.25,42.68347521975372,33.090096526118735,91.37642622727795
262,0.035908756438557766,1.229569650622287,40.77035486762584,50.32229814844465,126.53842006218993
263,0.03595670519170794,1.2048192771084338,46.275122987782424,40.4803649444162,127.08055576434175
264,0.037440305635148045,1.2313038223296502,45.438559583818844,25.59050765154815,142.48824549732302
265,0.03905160390516039,1.2633084379469228,38.83687167881375,20.93337500961854,99.94988395304432
266,0.04080782844055798,1.2083024462564773,29.559555335606866,35.43044241036155,114.5260785856239
267,0.04272945280139524,1.25,47.11924351957916,47.2435710335422,82.5721000683181
268,0.0448409974834134,1.2774613506916104,56.124072590509265,26.412202739185982,94.37791782578186
269,0.04717208182912154,1.284388465362946,32.174660180499814,25.297062364524695,149.68366252752037
270,0.04975882203604976,1.241943090709001,39.46587463889397,33.65623264729859,120.32744553943213
271,0.052645715820574805,1.3054607508532399,45.68489385565513,37.977502689764265,165.30255448352506
272,0.0558882235528942,1.3036809815950938,10.184557120769062,38.07192725492896,88.97038532333241
273,0.059556365846247336,1.3151196334634356,44.73663832525331,39.04591615799953,79.3367852761338
274,0.06373983739837398,1.2658227848101264,29.73885282408238,18.483334075658515,112.92537035600427
275,0.06855543896467295,1.3039796782387731,58.93802246385663,42.45329249214815,97.44923413480909
276,0.07415815361331819,1.3024850042844944,74.94047679788153,34.30024276793582,106.15083909625062
277,0.08075813761845899,1.292460646230326,40.026814485291865,26.7181230901913,147.05011265860358
278,0.08864767073722297,1.2733171127331697,22.705735151530313,81.83811167304827,157.96001621815535
279,0.0982456140350877,1.3073005093378582,19.971303062561294,65.50918493138792,153.43378793195197
280,0.1101742551995503,1.3307651899842432,35.63650326093521,76.93129805706994,78.79844013820478
281,0.12360939431396786,1.286067600989284,55.482405228412766,69.86619083445109,198.7987212965485
282,0.1342281879194631,1.2764227642276416,36.796733307848584,46.48129597830397,68.4606130530407
283,0.14684287812041114,1.2523779327837667,53.645804474815684,40.58961627236198,150.84554309545183
284,0.1620745542949757,1.325658468515613,39.29694743471529,40.348245473984065,109.94143278432159
285,0.18083182640144668,1.2899467376830895,40.014556148808175,51.79894126611107,139.85006943867873
286,0.20449897750511245,1.2096774193548394,21.20589081874881,54.18807193519851,120.49519188753621
287,0.23529411764705882,1.2045585689555687,27.046926965575654,60.533250023018,124.1952631038241
288,0.18757921419518378,1.2694049159120324,28.724079554543174,50.582258010088225,60.962558681505136
289,0.1559536354056902,1.282051282051282,47.20430966540185,52.26145152351004,124.9424426133474
290,0.13345356176735798,1.269404915912029,23.990993295688607,38.39510552847317,111.47953021153444
291,0.11662726556343578,1.2360074626865722,36.465980262007285,48.6472636753284,154.1235378437482
292,0.10356892932120364,1.286947857854535,47.00293414152374,43.96705401421322,101.13578723288373
293,0.09314033983637507,1.2793176972281401,48.155106030079075,47.95016073917185,179.56543147930708
294,0.08461978273299027,1.2267601341054517,47.16914437519398,48.87618087610078,138.93668327787856
295,0.07752750130958617,1.2222897054357769,29.94939456830356,21.19042480457601,117.66779824270168
296,0.07153214113098115,1.270843451513682,17.85245531503755,34.35843867583766,137.57623307755983
297,0.07514761137949544,1.2631915574032573,32.214222871973234,21.739646432623676,150.38944759955604
298,0.08298755186721991,1.2770772712576832,30.520166512548,43.72990406706324,167.32243130665904
299,0.09265387160820648,1.2885295603840412,38.553132795795236,39.69689326706928,98.48043904728051
300,0.10486891385767791,1.3178428992543714,18.53414078711683,46.366520029289674,73.71125848739604
301,0.12079378774805867,1.2987012987012987,24.845509542078467,42.23600995103031,96.79362613070276
302,0.14242115971515767,1.3157894736842106,15.270253480210839,32.12277994373303,164.71008671830575
303,0.1734820322180917,1.3157894736842106,52.09892444018282,29.049306003148246,150.70173724850932
304,0.22187004754358158,1.3041254688032682,66.58461724416925,43.163105486712084,164.0961425130267
305,0.3076923076923077,1.2372748629600425,50.56151958683913,32.14289159184397,118.92165087056918
306,0.3076923076923077,1.2785016286644897,49.84348967298911,26.133631375879414,113.86227406224921
307,0.3076923076923077,1.2505862122869988,25.48956819962514,39.65880575882364,97.40080892323171
308,0.3076923076923077,1.2691570881226206,27.938639223741948,30.11483642660504,154.37762501483235
309,0.22585160989267383,1.2987012987012987,61.67489922574073,84.71632808692154,47.192722620153944
310,0.16672407853944196,1.2933911882509947,33.67921032268881,45.260595866778864,111.51372824832796
311,0.13213213213213212,1.2920973657886032,15.850579476308205,46.46653675516035,167.86304708202093
312,0.10942799005200089,1.314207180896761,36.51490610220695,31.85337059055824,118.83316151981877
313,0.09338221107466718,1.337522441651714,47.519895956675455,38.32008768116793,110.78718114616937
314,0.08144034999158674,1.2928139691067364,28.846047900640674,66.51101042974003,134.4454806566076
315,0.07220647471281516,1.25,15.630188539488486,52.403259662906606,123.28928847515922
