time,breath,heart,delta,theta,alpha
4,0.3218390804597701,0.897206885352387,947.8344113541962,649.6218053770336,299.1661940998329
5,0.2947368421052632,0.9105141727092945,683.7178500074994,438.1592294105173,207.96282505049493
6,0.27184466019417475,0.9256092347156905,478.0288602667712,343.3872775206481,159.3699751317259
7,0.25225225225225223,0.9229457529574763,422.0691354864705,267.26455297289823,115.82256322796802
8,0.24372759856630827,0.9174311926605504,322.4613142890098,227.44948148702534,102.21714045241032
9,0.23693379790940766,0.9261049872150239,301.7625063115965,201.14844276988086,108.6268546642011
10,0.23050847457627122,0.9359896778708422,244.10472052458593,174.46928964175487,82.28649915302275
11,0.22442244224422442,0.9267384371722707,242.26296460618542,150.56810217712393,78.73717050215151
12,0.224,0.9158198469451762,201.55123063989507,140.95025785352428,63.888337589064264
13,0.22690437601296595,0.9121742610967157,196.15303410885394,129.17287701857967,57.61071766161338
14,0.2298850574712644,0.9386994187959206,170.82717435152327,116.9671365016243,45.81544708434294
15,0.2329450915141431,0.9305359278182411,169.6796522899296,109.30426701336506,53.11625758751481
16,0.23613595706618964,0.9188328912466843,147.48990633325974,100.14002754452056,70.22183267269243
17,0.23956442831215974,0.920849298249328,135.0509892171429,89.19294910327703,83.51362203425437
18,0.24309392265193372,0.9279347008914187,135.82647969667872,89.36116672168686,46.781735151696175
19,0.24672897196261684,0.9273803119956966,121.48734432607063,81.24213747264595,53.53548097739785
20,0.2505050505050505,0.9209353647667953,109.74392094729643,80.25327023482667,51.285151232569426
21,0.2546201232032854,0.9195645280625726,111.19932626208949,74.47769871987909,47.30320230868198
22,0.2588726513569937,0.9290266825105326,101.57578914565428,68.21195279403548,41.615943949185365
23,0.2632696390658174,0.9373696573222401,92.0196934097045,68.72861560793471,36.22487987538324
24,0.26552462526766596,0.9281687423635078,85.5814639597235,62.40282747294451,40.44315368373114
25,0.26105263157894737,0.9187775154724686,94.01548741149806,60.71325065354787,39.461669504118774
26,0.2567287784679089,0.9383171819720043,83.25328058390492,56.67820516538671,27.51624942405569
27,0.2525458248472505,0.9338487599357165,85.11361904178273,54.423230026321306,33.37809836218877
28,0.25,0.926105822161777,75.26459321942653,56.56715767942177,35.206393012527585
29,0.25,0.9382586444459026,73.305328521929,52.40849252945112,25.704693134689634
30,0.25,0.94687241787445,80.8813288804914,50.50978263591492,30.41108228749334
31,0.25,0.9478672985781991,72.57695717367585,50.36783646283183,28.344247746859246
32,0.25,0.9307699014735374,73.37456815471822,53.09764759802114,28.30537444837608
33,0.25,0.9351294794663875,66.80330000263508,46.32694535955297,38.075944324983936
34,0.25,0.9447204830551904,62.84040205466642,43.87127700531491,26.847555231433738
35,0.25,0.950553172273651,61.47680115381123,50.305572644192516,36.19099596309808
36,0.24727272727272728,0.9309895833333335,71.85457475613974,43.20991465256213,22.57102085318724
37,0.24028268551236748,0.9210330850363957,71.30426267196597,43.08129625727481,38.04578194259749
38,0.23367697594501718,0.9388115749944775,56.57170073455927,49.570875128383435,48.231807011650034
39,0.22742474916387959,0.9448643841707426,64.49587611303167,37.713918996789225,26.814766405176425
40,0.22335025380710657,0.9290595158543684,40.394804662724724,39.13020784581033,33.78139425919449
41,0.2328042328042328,0.9276437847866419,64.09946633835887,38.797492843908415,47.24188503477219
42,0.24309392265193372,0.935729033958617,49.973855165731166,38.91636381766144,27.183371702277842
43,0.2543352601156069,0.9430822145789414,58.74129393710801,30.37807800027188,22.572420229483225
44,0.26666666666666666,0.9389155195918908,42.81156180424948,34.931222287748966,34.28710716577982
45,0.25806451612903225,0.9348045010727264,58.20991430595515,34.95592110435641,28.677662757171497
46,0.25,0.9307472012496746,61.24864301385823,29.548211404267942,29.894048173207082
47,0.24242424242424243,0.9483431886645095,53.85812249746761,33.763837145723194,24.124120326711022
48,0.23529411764705882,0.9256856129422961,45.071009434061295,33.6125437933813,25.525607529960453
49,0.23869801084990958,0.9145894811745254,60.303800034382505,32.757709798922676,21.428841703666304
50,0.2422018348623853,0.928493133019537,41.098510596223186,36.550966866582485,29.222494073143118
51,0.24581005586592178,0.9437111887644951,52.469979438546545,33.89207826000738,30.895604437036067
52,0.2495274102079395,0.9272177029898481,37.24170495692072,35.6371868162987,28.357671541636545
53,0.24672897196261684,0.9130607383882492,49.97028836973461,38.491761592194216,21.286164717419656
54,0.24309392265193372,0.9259259259259258,40.278879064477906,29.35119427825004,30.421290763940142
55,0.23956442831215974,0.9259259259259258,44.741933301452825,28.202666024023436,33.029897783856875
56,0.23613595706618964,0.9218335648440458,34.8078022640979,31.307876783218965,20.580195092250396
57,0.23529411764705882,0.9020829916352304,60.17365349117137,30.885498920793598,25.746805640376024
58,0.23529411764705882,0.9171252292813072,52.87342333892766,29.315579233179744,78.99834477332536
59,0.23529411764705882,0.9136716218193982,44.48322790741451,24.323950062036555,49.32420677972192
60,0.23529411764705882,0.9032813076072262,39.70920891066191,29.21745526344831,53.50399348817181
61,0.2337228714524207,0.8980464966096222,25.349873290435635,25.146888099709972,62.85300739425511
62,0.23064250411861617,0.8992987490653356,30.683622453866548,26.131965185232986,39.65015001750311
63,0.22764227642276422,0.9135277186835189,44.3178003561771,21.085020701271517,45.1724400014597
64,0.2247191011235955,0.9168922179559806,24.614120693590976,20.634707524451766,50.77594026149898
65,0.22257551669316375,0.899538129525423,36.25187146770993,23.743422919900464,37.81845696971645
66,0.22544283413848631,0.8925533830975204,26.945628107653594,23.786320935144275,92.81484824444362
67,0.22838499184339311,0.9065752519411862,37.30570084590121,23.88477216977892,34.26530661226897
68,0.23140495867768596,0.9174311926605504,32.61289645976557,22.22326513546657,29.419848927968896
69,0.23450586264656617,0.9174311926605504,38.84510181497217,22.316737626969406,54.84518721739194
70,0.23076923076923078,0.9101487823123598,31.748822360113735,19.232474938243882,40.26166645691871
71,0.22499999999999998,0.9123404962799784,26.959780841154725,19.90478528729896,69.42485581736207
72,0.21951219512195122,0.9281687423635075,42.89647923775713,21.086775919754565,47.33824723712389
73,0.21428571428571427,0.9290869020353486,39.22664186776959,26.32534019515431,52.42408565235084
74,0.21052631578947367,0.9188264368544452,28.44130628539451,23.22893232631126,23.782273783869677
75,0.21052631578947367,0.919234182832509,38.59534561250673,23.466539409111057,17.944816827388795
76,0.21052631578947367,0.9328683522231908,27.063957832656573,18.663377872475976,18.08496237519437
77,0.21052631578947367,0.9389155195918906,43.142783156374,22.853112462769595,66.08386843350871
78,0.21052631578947367,0.9267384371722707,28.52977892255594,21.148973231244,58.368656166718246
79,0.21301775147928992,0.915021781270192,36.343942869395896,21.275514262864675,19.855625460395853
80,0.2181818181818182,0.9066633546544122,28.37775098882919,20.36316824786994,23.045378532509908
81,0.2236024844720497,0.9218659765148759,37.907465059603595,20.899324594125957,70.22427250050352
82,0.22929936305732487,0.9338504539249884,32.42115896949831,16.381701709941666,47.35676157038191
83,0.23529411764705882,0.9196185286103542,33.286804215871854,18.98547471821172,93.72636672335646
84,0.23217247097844113,0.9141303210961196,41.46450052622171,23.000048165464186,60.88256169574448
85,0.2291325695581015,0.9221572119053676,33.176138641205426,15.653813848025248,28.70468029394596
86,0.22617124394184165,0.934152077345179,24.710092729206757,21.77023754182444,53.29429908750978
87,0.22328548644338117,0.9291069769451827,29.652326747013248,23.692047544133807,28.660485796808025
88,0.224,0.919583967529173,28.438154424950945,19.05036677392037,32.1425750280952
89,0.22690437601296595,0.9174311926605504,32.94701581485179,22.695734920774356,20.394351390034334
90,0.2298850574712644,0.9215903286225099,36.539241131113165,18.944700244092893,52.46467492957303
91,0.2329450915141431,0.9280543083632301,40.28612573194257,19.496765361080666,43.95113693231005
92,0.23529411764705882,0.9179491468718636,24.254377575678173,19.600505878464258,33.1814401495997
93,0.23529411764705882,0.901951159651491,26.535739483489873,12.8352297962799,30.858730919432155
94,0.23529411764705882,0.9131569139023483,21.578133539145146,15.408525195235603,40.575293167972774
95,0.23529411764705882,0.9327674974688182,17.280592299388946,18.257623214543692,26.31109581299701
96,0.23529411764705882,0.913107511045655,29.521989733373967,15.861264009141435,34.36408472847616
97,0.24242424242424243,0.8999492127983747,27.692023134545007,19.6017832027846,26.235240501877705
98,0.25,0.907429838428217,24.19095298353862,21.858541544427727,42.170687399843956
99,0.25806451612903225,0.9063444108761326,32.553046050850845,17.945970912252434,38.053770062419666
100,0.26666666666666666,0.8953788834805598,23.344019064043145,21.213350576264666,20.706762358342694
101,0.26666666666666666,0.8944866729508038,40.40761004536074,11.977195674753522,17.68875212177543
102,0.26666666666666666,0.9070481766270179,32.60333893545779,10.950091810896813,24.075177913237265
103,0.26666666666666666,0.910570445602686,31.036014965629917,15.713363883953118,25.537172214137613
104,0.2889733840304183,0.8973866645107829,55.58520225046514,19.355030741423985,31.30411087032322
105,0.43428571428571433,0.9047007763310718,25.59300483140718,16.721635497049732,24.018615590302705
106,0.8735632183908049,0.9389773170837499,35.759857245811475,16.828204020625,20.220682514438145
107,0.49673202614379086,0.9433962264150942,27.665546090255567,15.843951473297327,30.044755879464855
108,0.3153526970954357,0.9761490332596332,32.85191429957234,24.210773674663177,27.82060753713803
109,0.26439232409381663,0.9670815783900791,33.212247275426996,20.001290185733787,27.794510828170747
110,0.259958071278826,0.9649143202585506,36.730290672501006,23.57019571153077,18.300045867272257
111,0.25567010309278354,0.9661835748792271,10.664534739674629,20.564920619706392,20.78414054729517
112,0.2515212981744422,0.9426165426969548,23.38276682835134,21.447804876806924,22.800290694854894
113,0.24548736462093865,0.9277196607688665,22.214698324039535,15.613632122518498,27.95257153451904
114,0.23859649122807017,0.9348243928009787,14.443597382628198,13.899196984557403,25.286294629327493
115,0.23208191126279865,0.9495241102440348,19.44242825915013,15.38275516035486,23.154936868986386
116,0.22591362126245845,0.9513909290185529,11.647866982478522,19.056733737194556,52.76962812448674
117,0.22328548644338117,0.9341733651966105,15.09838406904455,14.537755092053148,85.01104482658283
118,0.22617124394184165,0.925746099566259,33.529707439109764,18.418119811037098,90.89420387576786
119,0.2291325695581015,0.9478672985781991,22.878062237308967,17.41294460144251,24.007130917091562
120,0.23217247097844113,0.9464074462623604,40.784077315201586,15.84287236306646,64.96777132722256
121,0.23529411764705882,0.9366714478202287,25.324424541723516,18.119212513438505,35.00488912042992
122,0.23217247097844113,0.9177027827116636,39.748982428614106,16.123470199638295,24.35811906500778
123,0.2291325695581015,0.9255310074213083,24.06355833713609,22.022151428930805,29.501502396127844
124,0.22617124394184165,0.9374590271404222,39.005122708873216,17.717000053023536,41.51600434952442
125,0.22328548644338117,0.9353573853803859,14.00977705354088,17.65875936370696,103.14306887949539
126,0.2222222222222222,0.9185210326467405,23.37958804944497,18.449579980838177,73.27852872075522
127,0.2222222222222222,0.9188425955195887,20.476742133114264,18.37815232594957,41.944110379057314
128,0.2222222222222222,0.9292598262219443,15.880400803004996,16.137461864407204,70.47431787795071
129,0.2222222222222222,0.9323046832554601,11.955043149371836,27.025153301309928,49.15867337124684
130,0.22295081967213115,0.9206349206349204,19.738685849577706,15.911931002308652,36.88800031670572
131,0.22895622895622897,0.9105994606928023,33.045257697224926,20.929629943570017,25.79955742068609
132,0.23529411764705882,0.9179162877265712,20.651934560695196,12.90686363728724,47.6093982293221
133,0.24199288256227755,0.9302325581395349,25.21034078036342,13.391343969239756,44.299422358885515
134,0.2490842490842491,0.9257497939255582,12.032255110160099,14.857091060399753,25.869294510294566
135,0.22641509433962262,0.8977281980294772,20.064310204290454,13.660767229230649,57.227908326524336
136,0.20437956204379565,0.9163826780816233,36.751715588336,19.204641761181424,30.11001442187025
137,0.1862527716186253,0.9285867467295739,10.660949843736107,16.45825334622305,47.28102783267307
138,0.1710794297352342,0.9302325581395349,24.768535570997265,17.157629778259015,27.822676284073683
139,0.15819209039548024,0.9148264984227119,15.418725994028739,10.195494659442678,32.26649658871719
140,0.16822429906542055,0.9144050104384138,20.725383319502026,17.097933352079146,38.20289503402236
141,0.19780219780219782,0.9269590593082149,33.475279093120626,14.8501550120134,27.811381981624262
142,0.24,0.9324465310380801,22.8294011794031,20.4881680207885,20.15116711335032
143,0.30508474576271183,0.9248382067109496,25.283381994704456,12.196079094254188,54.72634574761142
144,0.417910447761194,0.9188652542193874,13.23571796899018,15.793470778109441,56.54950258347586
145,0.6511627906976744,0.9261452971203357,21.030760686583275,19.27521117682742,17.789057263099775
146,0.7407407407407407,0.9381110354373088,11.858420420245142,19.95254427699858,60.840461856483614
147,0.43795620437956206,0.9306604480006825,27.554082972760643,18.383405972188566,35.13562883639896
148,0.357976653696498,0.9061623194430027,24.82947469685212,10.039703303067705,19.079849506404646
149,0.3471698113207547,0.9293402962805096,14.802500548759397,12.282386813461972,26.459498802502825
150,0.33699633699633696,0.9263836646963993,16.540748481108402,7.993324319974538,16.15276008503408
151,0.3464566929133858,0.9330382328689847,20.68450233814066,11.621648417822747,22.41514837742165
152,0.3697478991596639,0.951609637578459,39.084734655775065,15.532511728100335,23.388070265846018
153,0.39639639639639646,0.9472168474103394,18.479545700764056,15.977299986221306,25.1249903856544
154,0.31353919239904987,0.9554140127388552,47.09400204840524,15.391342477607,25.715988889097616
155,0.2514285714285714,0.9703491377284917,25.22934296604716,14.210863043366405,62.97220025198555
156,0.20985691573926865,0.9616498667593534,19.29025859698217,21.804561649257735,66.30685846596256
157,0.1800818553888131,0.9574419350405432,19.992550780307404,14.41911382969479,67.4774876695949
158,0.22271714922048996,0.989180079622895,14.670658865050184,10.083593458748064,64.89920873667707
159,0.35587188612099646,1.2372420882590978,23.202424989649266,16.00497757724713,46.06617203545995
160,0.8849557522123894,1.0870980341101093,19.73402224277056,17.266804639579547,32.48004727368067
161,1.090909090909091,1.0599334073251978,16.92441313589445,15.357943538251355,42.159657870778226
162,0.48,0.43810418289271774,14.382000392804084,18.072067246166736,59.06793708049577
163,0.3010752688172043,0.26377855014894624,17.24603018591635,16.77543236150012,44.51394440274676
164,0.23376623376623376,0.18869506876886372,12.63115173849877,21.492908529414507,53.58601196799123
165,0.22784810126582278,0.14961988100156226,18.317887819887787,14.561737353226908,53.26616742894869
166,0.2222222222222222,0.15929888497920872,15.9313603164807,19.261984982383694,33.88920094519322
167,0.2168674698795181,0.17031678463896938,15.41553954153822,12.892803451483482,38.528967394994794
168,0.21176470588235294,0.18297203668954434,27.24581335289823,12.106858430361186,26.225198869379305
169,0.21864951768488747,0.19765892450864508,15.708746921638369,20.069913009618713,42.000754386142624
170,0.23050847457627122,0.2149093739403859,21.484603021848617,11.496480570104822,21.554322437105736
171,0.24372759856630827,0.2715195572979833,16.604478622991998,24.24486926781464,41.50510779466154
172,0.2585551330798479,0.4717315573286518,14.585813136832517,19.632532180446265,39.97996650208095
173,0.26229508196721313,1.7962239700514007,23.374395253889215,20.3189323522763,30.563460408845717
174,0.25396825396825395,1.1173512893644992,16.51439079466039,11.591821106511093,18.936554627645588
175,0.24615384615384617,0.8644385888419279,31.704684193398897,19.64706961807584,51.519643317344304
176,0.23880597014925373,0.9533972024403351,22.893572814973467,13.331537384274316,20.09681695136456
177,0.23529411764705882,0.9918026910116267,22.95171154483335,16.46559387868706,31.602406611688128
178,0.23529411764705882,0.8976695870327822,20.60477863222944,11.481138867744448,25.872368140291332
179,0.23529411764705882,0.8422224283461746,26.901136487741233,16.69639301487847,33.77602622102104
180,0.23529411764705882,0.9245494348844441,26.940080530805083,15.604728633829405,22.901588029824097
181,0.24932249322493225,1.0167389956602741,11.059322791690308,10.041165340113771,39.04647489229019
182,0.3274021352313167,0.9252430439155075,13.77247442226505,17.232304398694353,31.2358988793742
183,0.4766839378238342,0.8508508508508406,19.545938894828222,13.13291337395152,27.679556123963803
184,0.6222222222222222,0.8850583597433846,14.397843802755625,15.173507259619264,25.117301773206535
185,0.5283018867924528,0.9243051701319237,25.542823295561416,14.45204443983214,24.787711850415313
186,0.4444444444444444,0.9796153569113488,22.059801579795504,13.770165888799733,20.05198682999029
187,0.37735849056603776,0.9789642081134438,22.272435021040554,12.048123477589302,33.47386860548141
188,0.3333333333333333,0.9216589861751152,15.067712144642087,13.230034226912858,20.023326526839107
189,0.3333333333333333,0.9306168598204037,30.287098431297554,8.922569469561651,18.718757434884825
190,0.3333333333333333,0.9453102356587062,18.020071623839854,8.693729958794894,18.845489678168143
191,0.3373493975903614,0.9389671361502347,22.855459979792737,8.40275465860782,24.309632205097902
192,0.3733333333333333,0.9426991199982118,63.26172227817883,11.991612320063785,18.641439336161948
193,0.417910447761194,0.9626563735292762,76.15870827331074,10.410105987228196,22.027046130041786
194,0.4444444444444444,0.9721198868633113,65.19979597441457,14.075413803145075,17.228879675417485
195,0.4444444444444444,0.9788189987162874,137.40991979616663,12.682504697114414,13.662201483389495
196,0.45714285714285713,0.8928571428571568,29.391476429183864,12.266151763316472,16.1703908481928
197,0.5161290322580645,0.9835611377909297,45.64009005459743,14.478210967933997,15.36363077334216
198,0.5842696629213483,1.1146869514336148,59.659212262054126,8.757628185645506,14.006767719864374
199,0.6419753086419753,1.0057948076481285,48.8413812224598,14.491970515050978,16.97092695842645
200,0.5957446808510638,1.0182952081658296,75.78788011135644,14.061469530875966,37.55344326014032
201,0.5090909090909091,0.898421507528579,38.69220863628323,9.670566161789958,28.649184130224366
202,0.3802281368821293,1.1579463301065678,92.35934119867117,13.64200147737872,27.619654917265343
203,0.2985074626865672,0.9812940815700928,45.13111915612393,19.534350367099975,42.13441152579432
204,0.24570024570024568,1.1119769811773015,24.00492177542216,15.543893023553453,38.3789696939046
205,0.23076923076923078,1.0331730896921703,62.06003808320402,14.161935729003973,21.261981822303632
206,0.22499999999999998,1.0298219266251945,26.91654596582177,12.311192902610674,50.06741359481589
207,0.21951219512195122,1.025276621662751,18.977783666871996,14.728212870212456,111.38308755496014
208,0.21428571428571427,0.9734910888123754,15.797084906133037,17.18355984618095,37.857667639012696
209,0.21176470588235294,1.093889802868905,24.50340531539913,11.312209726711291,30.645225578376813
