time,breath,heart,delta,theta,alpha
64,0.31545741324921134,1.3170771489153488,43.343304934421774,6.405634076277477,39.300575443099305
65,0.3236245954692557,1.4201663623453034,23.671064794283165,10.005175627045881,58.49938805112123
66,0.33222591362126247,1.4729685982518619,15.465322919923924,10.354616675203339,37.12712901302745
67,0.32573289902280134,1.3977128335451041,29.13846484705221,8.27147003395428,22.845166224490328
68,0.31746031746031744,1.2217379967966606,7.554032503518277,5.815218599618961,17.528791110473577
69,0.30959752321981426,1.2461415342403126,18.917787773237823,15.013177595609012,39.64062347276699
70,0.3025210084033614,1.1538327465402431,7.867397743644881,9.975045526829195,39.35630887275043
71,0.2958904109589041,1.187616308577228,12.370569180138784,6.204610031223235,64.72967368755558
72,0.289544235924933,1.0784229143300827,2.8149193061685764,8.167986411852416,54.516792992088575
73,0.28361858190709044,1.064134924277192,7.87368879805369,15.257585274812868,29.0101250503874
74,0.27817745803357313,1.145088694731269,12.472364400213095,6.562423904873506,45.05808489043014
75,0.27294117647058824,1.1851174567449707,13.426168274256588,5.031047961594582,17.938619837722253
76,0.2678983833718245,1.0712923013706657,11.690191088129234,10.275382317963677,61.250059716887876
77,0.2601626016260163,1.055190320976742,20.88778460734998,16.230512667581305,67.51822207065976
78,0.25196850393700787,1.1126649236942918,6.561135843513762,12.275889272122749,45.49141047732253
79,0.24427480916030533,1.2815906096538499,14.142244782807541,10.061258895440268,16.681016794666025
80,0.23703703703703705,1.1730788348742394,20.273665760867104,8.982283400302645,36.8408331086726
81,0.23783783783783785,1.0472060868853796,19.905505479881576,7.271476663505296,35.39172984455621
82,0.24131627056672764,1.0544322611402466,14.145364735804487,8.702812038196749,20.790303605691825
83,0.2448979591836735,1.0912550920281876,8.729010415343101,11.06117360043118,59.215143105046494
84,0.24858757062146894,1.069121262363501,7.649407212185357,4.4781796742439886,34.21560879622199
85,0.24765478424015008,1.132266430514266,8.025387290134269,9.1798320850853,33.717618439656896
86,0.24399260628465802,1.1819671559569056,11.844110107545134,10.63393180505179,45.35632812500664
87,0.24043715846994534,1.0481512580710515,5.034169169116968,5.680454573536724,44.46865184004053
88,0.236983842010772,1.0362694300518136,12.611312771541147,19.81581535627223,51.5829711808112
89,0.23529411764705882,1.1414280675879311,14.42218215784045,17.95833709839493,51.56692307729141
90,0.23529411764705882,1.093039524309198,13.410861726833756,8.973786419785567,36.78189406764637
91,0.23529411764705882,1.0343345333404979,13.089832000643462,9.506389759087547,25.443856768140794
92,0.23529411764705882,1.0789969214215276,17.40254942716985,12.64212769372182,27.494428704637095
93,0.23613595706618964,1.1709922618640003,11.863377607869145,17.464902330845348,42.26420933073752
94,0.23956442831215974,1.1041443645817381,10.374011988133361,20.219302350991416,39.69829913738591
95,0.24309392265193372,1.0480277273477467,18.835152102570806,12.266954085121581,50.3277836186842
96,0.24672897196261684,1.1003757380569008,17.036130083048832,11.081412455871122,44.15657736383391
97,0.25531914893617025,1.1006145097679523,12.191491760985409,5.763856494187641,49.19526141068773
98,0.3076923076923077,1.087665224349475,8.576388541140942,14.917624255970072,50.03446771308056
99,0.3870967741935484,1.1695906432748537,14.82846723080505,14.974823413946298,58.50689202544177
100,0.5042016806722689,1.1507885626362329,11.186819303023293,17.846334576933785,42.767358857268825
101,0.5405405405405405,1.0653409090909092,18.539935691913225,16.861660753500548,50.238009525193135
102,0.5314685314685315,1.087442276180546,13.02619323870013,13.702439809539017,43.441219833903375
103,0.41530054644808745,1.0966620722718272,11.841904759041359,15.097471250161075,33.565712807349314
104,0.34080717488789236,1.0727330246469762,15.328900150121635,16.950748111989416,51.26022473388665
105,0.32573289902280134,1.126175721161409,10.972582564342165,12.312025244608938,46.379912142991586
106,0.31746031746031744,1.1879389259634543,17.70354973456666,22.3941055201967,60.867910141724714
107,0.30959752321981426,1.1003175201986823,12.454002005455036,9.234136051654179,50.30945965612725
108,0.2936708860759493,1.0876442409086813,8.284970421030533,16.949464621535043,39.87887176813364
109,0.27684964200477324,1.1427993527508118,12.272970045710938,19.580217539060204,46.55158314935039
110,0.2618510158013544,1.2500000000000009,15.678369269794153,16.18390063400428,41.661123445588146
111,0.25162689804772237,1.307718521042768,15.64452677369497,13.017883889929953,37.36414324597154
112,0.2654462242562929,1.2855408064988894,6.970833933934988,10.28903527390527,51.45247071420029
113,0.28087167070217917,1.3436574812115702,6.902772944463356,8.647015834122076,50.25102280574552
114,0.2982005141388175,1.3519706691109061,7.192507664753751,9.429867053830101,58.8565584561139
115,0.2982005141388175,1.272096481083758,13.746276511328958,14.842992354809303,55.143346141123395
116,0.28087167070217917,0.8433330536208726,4.39118355939229,9.88483493401768,29.10798023696848
117,0.2654462242562929,0.9472259810554823,5.907257651030936,14.538663125154477,60.96759564232902
118,0.25162689804772237,1.0766484436014754,19.802952175805537,14.106713795972531,44.03623347150078
119,0.25357873210633947,1.3064503548865234,11.858030068487277,8.79704265757412,35.47856374166527
120,0.2577962577962578,1.4817671036686149,6.427393357058179,8.502884130356156,56.8461055900626
121,0.26215644820295986,1.5364766596293695,13.711626000269764,14.085229658745074,47.208666505374275
122,0.26666666666666666,1.455005535347144,16.728238795638166,17.31167715637581,58.15328095241439
123,0.2716627634660422,1.4356765625801167,10.480418509118264,9.665999817203845,33.05446223444208
124,0.27684964200477324,1.4505655634687877,11.339113545176708,7.365583479844151,48.55084206477775
125,0.2822384428223844,1.3795423956931339,10.069710555395941,9.997143335618608,82.37195718191539
126,0.288,1.293638894838297,11.942591809779607,13.670715201621283,67.44661130044598
127,0.2942779291553133,1.3788825802757774,3.3902242750875984,12.605109071704948,50.73786652158231
128,0.3008356545961003,1.4669279245882574,11.596051624670443,16.198228799275295,50.66911460327248
129,0.3076923076923077,1.5257804279200293,14.915517304872756,9.567502143988259,46.41052618801323
130,0.31545741324921134,1.483845680049272,8.678135239896585,11.048134483883551,22.618538067232347
131,0.3236245954692557,1.3135887080324695,17.247128209517424,7.428740272073487,33.24658625638526
132,0.33222591362126247,1.1326808920263118,11.876489949235747,16.128914581629598,20.277141781501147
133,0.32573289902280134,1.1750154607297496,8.500121964635763,8.61044240089531,47.68388392566558
134,0.31746031746031744,1.2856164107524326,10.566837133975163,8.01483556601868,41.06298108421788
135,0.30959752321981426,1.3420791438311772,12.817070024891555,12.516723771607536,69.57518377133896
136,0.3076923076923077,1.1702809348757173,6.676942196952405,7.144627195786702,24.132960469921798
137,0.3076923076923077,1.0842736248236948,9.71288383156979,6.262077882357359,35.9506148529348
138,0.3076923076923077,1.102629346904158,17.402121822587738,8.069588559530773,32.449522820471195
139,0.3076923076923077,1.1324376199616129,26.704056591065363,6.470144634357664,38.398578274959526
140,0.3076923076923077,1.141760458005335,23.099808968338554,3.709284329176416,19.098603604143353
141,0.3076923076923077,1.053146490950416,18.68633932735746,9.098650529111834,22.746964616082995
142,0.3076923076923077,1.0525443394662692,16.349722767560355,9.36803548710676,22.05068136541663
143,0.3076923076923077,1.1232296923327416,9.691806302754822,5.582954387185347,62.936355162120975
144,0.3076923076923077,1.2048192771084338,6.968893224357232,5.953681734107074,60.12094802941894
145,0.3076923076923077,1.1573766130105072,19.766195067996197,7.3091183981717,31.418889079071572
146,0.31545741324921134,1.095602581419781,9.800347024206005,5.838194678173261,12.615494237501888
147,0.3236245954692557,1.108627078675773,14.967027613525751,7.888315426836905,33.50554812158463
148,0.33222591362126247,1.197165892988031,13.174997812572155,9.611920342755967,42.38836211139576
149,0.32573289902280134,1.1573199629108133,16.92210912083195,9.104650078268538,45.62163109641227
150,0.31746031746031744,1.110427560750538,11.436487054504669,11.137644732571733,28.1159728612541
151,0.30959752321981426,1.124721243657285,7.577188516707528,15.096627662856704,20.007956975530522
152,0.3076923076923077,1.209101234748837,12.662653978905738,10.261289789723769,16.551286943818262
153,0.3076923076923077,1.1755295099641778,13.166731362953042,11.712851417017532,17.0750963361212
154,0.3076923076923077,1.1284444728597915,8.675257299995558,11.75582385369969,25.379503811483946
155,0.3076923076923077,1.1896551724137951,13.894968790848065,10.919013019994246,20.457646044494965
156,0.3076923076923077,1.196130776964947,17.686608356578695,13.881592452771033,13.282005583943002
157,0.3076923076923077,1.1084381375803163,8.831173754465366,8.641407605222687,12.960907567036784
158,0.3076923076923077,1.0993026584244328,5.932078106432759,8.356038564380196,14.84291439623998
159,0.3076923076923077,1.1745198286582814,12.70112381265455,10.606438722586937,47.07505595395216
160,0.3076923076923077,1.190561060811294,14.728552208169415,11.08331016969194,54.77164117203691
161,0.3076923076923077,1.1323701679031635,10.683242172125642,10.217072495549795,30.098190626995965
162,0.3076923076923077,1.1002444987775064,14.615085785818351,5.362751410625301,46.30355779979851
163,0.3076923076923077,1.1610629254639069,9.667951688272229,6.503808446315875,37.87273746909185
164,0.3076923076923077,1.2332480623114808,5.781390082316728,9.332075768127673,43.47244156320238
165,0.3025210084033614,1.1686939929810243,8.27017806708701,10.106433319228197,30.255695213856253
166,0.2958904109589041,1.0651325719818874,9.949045438719049,6.909233104653796,12.59445754731681
167,0.289544235924933,1.085149208016102,13.11403462831771,9.55206177537836,16.33486373256833
168,0.288,1.1551967444455367,13.055757234509796,8.350884284089584,24.62810691303669
169,0.2942779291553133,1.1384140940257867,5.9221883003739935,7.341271032510312,25.774088948059592
170,0.3008356545961003,1.0957642725598518,8.962474107862079,13.279192529355337,17.606847301884674
171,0.3076923076923077,1.1578947368421053,11.88561993988101,10.879180677114237,10.330307821873225
172,0.3076923076923077,1.187423151238363,4.147227557231538,12.281601026270323,11.560019677361474
173,0.3076923076923077,1.1484011484011487,5.473306577434191,19.231143281064263,18.617724422833675
174,0.3076923076923077,1.1657289174893029,10.480210387657648,15.910569768651989,16.587929115646304
175,0.31347962382445144,1.1331722291163207,8.117536978601247,6.435397795089228,13.080304472759858
176,0.3215434083601286,1.0727721608276497,11.267274111996871,15.006975119257715,28.571334111666257
177,0.33003300330033003,1.070038910505838,10.284522860496168,12.142018592571786,16.830979196404925
178,0.3333333333333333,1.1400972532527278,12.325207171453032,9.23187591754421,10.900611494552324
179,0.3333333333333333,1.1552298907482574,8.157269133670779,7.752615956199171,14.90395573655282
180,0.3333333333333333,1.1075416857885871,11.23997595131342,6.550852339540813,14.834729572626593
181,0.3185840707964602,1.1518220633502172,10.188649845472845,7.331587679075852,32.06701192843567
182,0.2975206611570248,1.2173462591578486,5.196458344408594,12.580138983724634,27.427789991957347
183,0.27906976744186046,1.1335012594458378,9.350178231849558,16.067675058442607,33.79530915253267
184,0.2678983833718245,1.1375661375661414,18.774949554345454,9.582341361064996,35.52937335272727
185,0.27294117647058824,1.1864762704745886,14.444135820784588,10.89616364812951,24.81933960423513
186,0.27817745803357313,1.1325888196399687,6.484672317429023,5.947235631366875,29.95186243074086
187,0.28361858190709044,1.0826194108672713,8.349606514747947,9.498347016695107,18.81310380448369
188,0.2937853107344633,1.1450381679389374,9.975492712235196,12.842780471946954,46.29789687587388
189,0.3076923076923077,1.158744637005504,9.794536930733125,10.247137532625068,23.15702023485308
190,0.32298136645962733,1.106002236858453,7.685606386127528,11.296789059488615,15.507958212765189
191,0.32704402515723274,1.1548846741923988,9.088025973156839,6.954769995514921,33.483267377641106
192,0.31137724550898205,1.2205464803274426,14.452644719669571,13.17937296650113,17.749879074562966
193,0.29714285714285715,1.1489763369462522,9.982660323422694,6.448462847529807,17.979100562883158
194,0.286472148541114,1.078362981048715,5.418248966055314,11.931980557173796,13.255478908896373
195,0.29268292682926833,1.1229611041405316,14.948591274167251,7.443921632236024,15.210741647757363
196,0.2991689750692521,1.1980944254835064,12.198029187730095,4.926548233196222,15.720609063515656
197,0.3059490084985836,1.1550649085147675,9.554651658725264,8.245048188038469,15.979639104641
198,0.31347962382445144,1.0886091345861484,13.10454618129123,11.093157536295298,12.603069564858934
199,0.3215434083601286,1.1445802665283207,12.129669000550429,16.08173321569886,25.61912505969598
200,0.33003300330033003,1.1088709677419337,8.709824141544631,10.04209452266159,12.31380527685813
201,0.3146067415730337,1.0981364956437574,9.52062425948486,16.805942223845385,15.639268341678298
202,0.28865979381443296,1.132826289271848,9.871192416028444,10.300913745570996,15.178319537581686
203,0.26666666666666666,1.1253099370589337,19.198367522311088,12.417317734582474,17.89851664544818
204,0.2510460251046025,1.1874032008260245,12.050491522460836,3.2293259137592556,30.35251593522683
205,0.2597402597402597,1.3347961236057824,11.379481538467326,5.895575171738341,64.11906574222817
206,0.26905829596412556,1.4332852134460754,11.648115927825717,11.234655120916814,19.569807072360376
207,0.27906976744186046,1.4011208967173718,10.04128785420778,10.571858707431286,18.341369385331674
208,0.29050279329608936,1.4011764143273804,14.926415495015227,7.750871170828182,15.96048502751005
209,0.304093567251462,1.2613763372185824,7.238568310753752,14.421775013545123,17.285013576856795
210,0.31901840490797545,1.2602394454946446,13.259340416686609,7.640804770518493,13.06220368070195
211,0.3333333333333333,2.373638648422262,6.856836725521401,7.410281615880672,20.482439134194877
212,0.3333333333333333,1.2066251967323742,10.380044660025137,8.26086109738901,13.910122251829602
213,0.3333333333333333,1.362751460090857,12.316491887558488,6.852847193014323,10.2635600269052
214,0.33121019108280253,1.4269810747900027,9.485830119185337,7.59834609722561,18.77246104186197
215,0.3151515151515152,1.5082527034718276,23.87411851597002,9.150977080133954,20.65136800978187
216,0.3005780346820809,1.5048268029528666,5.372731860075351,10.399219683980519,16.066826775843445
217,0.287292817679558,1.2502799134134275,5.09650866625224,8.555273979242138,12.545884637393343
218,0.303951367781155,1.09201575366989,13.454404840682976,7.458427803641863,14.496593401925876
219,0.3278688524590164,1.1322927328556867,15.42751862551143,8.265952675565716,12.35820518823836
220,0.35587188612099646,1.140373807345442,14.12706396424102,11.551999539930375,9.809457220023301
221,0.32132963988919666,1.0817557728312819,7.801893441063987,6.642023656460114,12.097106670924394
222,0.27817745803357313,1.0846684598292613,8.237081636470181,7.034863802350003,13.090881852462466
223,0.2452431289640592,1.1550407661446955,11.165066140785093,9.95150841199325,16.15192234066928
224,0.22295081967213115,1.2009383424949984,7.479693058453077,9.09811986263258,12.498239043673454
225,0.22895622895622897,1.103719383126696,13.377215988796886,11.794494829367386,16.2894143355835
226,0.23529411764705882,1.1076144637788545,11.347064282798742,9.264284365779437,14.404300577565163
227,0.24199288256227755,1.179040815618827,16.0074644255808,12.10847978827257,12.313686147432023
228,0.2490842490842491,1.1521666106818895,7.951660879534888,11.700186369347229,9.691599742998568
229,0.25357873210633947,1.1198031669926172,7.610048224135007,16.464997862779214,11.712000423104406
230,0.2577962577962578,1.1913814955640094,8.77702146817793,9.577962911446988,11.430535563039252
231,0.26215644820295986,1.2349888244876293,12.337381364183987,8.899946503169858,15.98565198561784
232,0.26666666666666666,1.198980507592345,23.476098092322694,11.368773587056685,12.780272792156206
233,0.26215644820295986,1.1925465838509328,19.491411063443824,10.522398879402845,18.061368918110972
234,0.2577962577962578,1.1976047904191618,25.034447481851508,14.817322513628028,14.750095451042403
235,0.25357873210633947,1.1295722644638417,9.428039538960183,13.98679217293617,11.761273075155586
236,0.25,1.0939314306667514,15.263317644844314,15.465677442489119,12.740337426376275
237,0.25,1.160930105879553,7.064508235406254,9.972422731393928,16.723050600624283
238,0.25,1.1885448261268237,17.496754803817506,9.715324365417734,15.288089604785023
239,0.25,1.1226690346314805,6.412098353415989,10.818165700014902,10.597655914952012
240,0.2482758620689655,1.1035653650254689,12.192635743644814,7.551187608155708,12.681203258690989
241,0.23529411764705882,1.2068116247977023,12.198308639842,5.246025814794575,16.109674548234363
242,0.2236024844720497,1.2658227848101264,11.859218289215862,8.186020254918528,10.19755365924814
243,0.21301775147928992,1.2499029578448835,9.977928362701043,10.540581748358317,16.894056024252468
244,0.20338983050847456,1.2368300503893757,14.983306927186653,5.7704885412464515,13.074340191819843
245,0.20571428571428574,1.1801507180435014,9.58300676357147,13.238606168049849,8.372271221157552
246,0.21556886227544908,1.1085638915931237,6.7699360735479335,13.555562076038127,12.021799942806979
247,0.22641509433962262,1.1695906432748537,14.674484763976675,10.761567716427036,11.787358397779382
248,0.23841059602649006,1.1646749037877238,12.388287537789251,11.774391988936404,12.575922941427221
249,0.25,1.1366563626996362,17.834185100065472,11.384951786789195,16.22949620500051
250,0.25,1.158857219412541,20.59827337103237,13.259918810462425,13.255122749955621
251,0.25,1.2354541332930373,11.614779071753073,10.943643747560008,7.900975861809782
252,0.25,1.2350414237496155,13.035692415244778,9.252732802982433,11.613750674128182
253,0.25162689804772237,1.1432169129829703,11.69228567877854,20.10229004253093,13.273310650234734
254,0.2654462242562929,1.2067252860454032,12.514211639754338,13.070125772495352,11.725427805763406
255,0.28087167070217917,1.2714943085492876,8.460883254953524,14.42935600956691,16.757882654869036
256,0.2982005141388175,1.2064343163538789,6.011308679739058,13.446240649792635,13.356996487286
257,0.3010752688172043,1.1766772040744666,9.463890433060419,15.416075083779985,15.090536715742342
258,0.28865979381443296,1.216653644379954,16.985320935843255,11.12135369823149,15.337786947677689
259,0.2772277227722772,1.197604790419155,10.667773582139334,16.548938592925058,13.954417306950942
260,0.26666666666666666,1.123453273837777,21.155602223200223,12.949396385336836,13.689003416224573
261,0.26666666666666666,1.1312001525213717,13.600189759315617,9.518949340811027,8.755703231253962
262,0.26666666666666666,1.2354785174257916,15.271374191219229,10.202185673243923,12.43145547023239
263,0.26666666666666666,1.2064103936895427,10.147485383150014,13.836378687732276,11.510996106187147
264,0.2706766917293233,1.154242756877224,3.775703000907804,10.356891025142195,8.313615884192327
265,0.288,1.1728991306747654,8.088712106136553,9.348412136907712,13.363119313584521
266,0.3076923076923077,1.200302779079407,8.183495484341922,14.162535793148281,14.43887144373928
267,0.3302752293577982,1.0913003381493913,9.037216888487697,14.077047375666433,14.295188741226104
268,0.3076923076923077,1.059048261138266,9.43745404286208,12.363767985072196,17.153665531762144
269,0.2828282828282828,1.1130939777986222,15.118117089015714,7.774498208279931,13.635445851602212
