time,breath,heart,delta,theta,alpha
127,0.04608592656401422,1.3873489694385217,68.44330000437913,33.762163307196325,161.69620407281724
128,0.04414754574498983,1.4531420852897665,73.89181540235097,52.2010631760165,211.31105413388082
129,0.044930535028081586,1.4565674199075422,113.29357144147787,55.282495163814716,149.36628359990613
130,0.045741799578693954,1.4767445693377723,72.51425895940032,26.727547347298966,84.51404781824719
131,0.04658289917254061,1.450809144618546,25.1102019259084,37.10916810930556,119.51171706088779
132,0.04745551045894474,1.4073710073710075,92.25831904338065,38.28375385626443,86.3189554885674
133,0.048361438116449246,1.4157730253079233,50.10551441304198,37.282550920201174,91.88132555954388
134,0.04930262731106065,1.3925934781958933,114.42620097953794,36.24080676615668,256.71469743937115
135,0.05028117763810784,1.3391242590619794,127.44530928447354,37.57524754090838,310.6874289738431
136,0.05129935875801553,1.3298432145073806,102.08104167103184,30.60146233996375,288.03133194559643
137,0.052359627971064415,1.3748188560225043,71.41421369798792,39.4448759899236,285.1873791838992
138,0.05346465001758706,1.4506613674470596,25.135773307127025,29.357622085649663,263.76407747533483
139,0.05461731943945383,1.3753633928062474,56.15117368185882,41.313727954400875,199.14750592826644
140,0.05582078589790672,1.3389265354415403,53.139325684171894,38.54381441398519,97.88270657125852
141,0.05707848291400676,1.2951483170244378,89.38642496630936,35.54613964540059,93.00134030293636
142,0.058394160583941604,1.2486757268521849,48.771073488001456,24.83227742316688,89.47357092519351
143,0.05977192292567834,1.1318327974276527,87.89196502307072,40.83576147749645,177.06252053339315
144,0.06121627064035441,1.1175743280515873,53.000191779866654,29.82665570562364,79.1977199166997
145,0.06273215022699133,1.1456797929303906,119.52109919167555,36.927570778747345,126.76752555502443
146,0.06432501057977148,1.116791673044543,68.02836165693041,28.0498298820158,92.07585989849812
147,0.06680942184154176,1.1545273366070143,69.15501062189368,41.711920067808826,65.9167963559498
148,0.07225567392311255,1.2135972499943832,42.83735890287449,42.728438848050885,90.61638817990772
149,0.07866868381240545,1.2335920305803314,51.07185372534794,53.214555616983816,93.56994685847371
150,0.08633093525179855,1.2309403531538212,91.21918707972239,37.56135252488258,92.47748144074814
151,0.09564684242795832,1.3241963222648498,106.9791290192716,36.01441213618834,201.1701001841139
152,0.10721649484536083,1.3822894168466524,24.184460510627552,48.177853731244085,128.98336984468477
153,0.12197028928850664,1.3839915903288782,63.65461781580987,57.041066860141505,86.60628783669453
154,0.14143245693563009,1.3243052922376903,70.98877210554886,68.0460973019521,81.5312761265825
155,0.16828478964401297,1.391304347826087,85.42476191136004,60.48198874266478,69.15916465432267
156,0.20772303595206393,1.4409541729119495,56.58338409516895,58.627235048365094,68.72274447921134
157,0.20325604341391218,1.4266056473957847,33.670721211177124,44.74002110695223,53.40292192263428
158,0.15975184179914698,1.350035345680758,63.164269550226365,33.83338390197175,52.49660515139435
159,0.13158735228361546,1.369951534733441,87.16595834114644,49.70431897383878,77.24942869489325
160,0.11186532717893022,1.395947556615018,79.26322499930382,40.15798028481939,80.56327004457904
161,0.09728453364817001,1.3597759879911087,109.68327430849344,33.421101178367145,59.51821432310169
162,0.08606642991435136,1.4340048954999058,51.94511004339836,36.58640703789194,67.61766446771871
163,0.07716800899044764,1.4456604734029015,70.5723832592419,32.21125403849749,83.05945433279834
164,0.0699371923272789,0.8229999081473318,57.22589458553791,41.92550910864403,76.16579574806539
165,0.06394536706503182,1.0306107645437401,54.243573291546255,40.37943858174557,59.684811202232595
166,0.05889921372408864,1.2088758481569777,45.56430509817531,34.403332470648984,63.55822988845483
167,0.05459122830263681,1.2998485876886128,132.7199992843873,29.184883195622444,120.38819964409873
168,0.05087047783676996,1.3961159882947591,76.18940195688019,8.511276122003713,99.09100238738745
169,0.04762455207490463,1.437122752150117,69.70869113917456,17.795924139030227,59.7265515727297
170,0.048214486876196914,1.3700194086082886,86.39996752936233,32.388643026044,102.671016692187
171,0.05121455067607993,1.250875145857643,139.3378346598694,34.4450680642523,78.82738086146892
172,0.05461273446471864,1.2077641984184042,110.74042110591887,31.7439697177865,89.43944753137907
173,0.05849391827251605,1.1486799444187124,141.7688477150324,20.387600267012935,42.4114457070134
174,0.0629689568927468,1.0554739225888983,106.64951423311109,25.793884425549273,101.04497812574503
175,0.068185438903935,1.1513574428849502,126.19084387914717,16.210066617052625,147.23136210379863
176,0.07434427653291645,1.266616295790782,43.26876343597566,22.965107238664423,114.75913193263492
177,0.08172617911017759,1.3412395418731216,63.61970588964655,21.955818334220886,101.62206653832547
178,0.09073563705745176,1.2677143125999812,77.41081531721616,29.09657507221487,249.97170964512281
179,0.10197760304979746,1.1566265060240963,98.30025050851839,24.68727777459013,218.283903034187
180,0.11639923850965461,1.1857697338794417,72.3393954995781,32.56414755888173,253.85931729240275
181,0.13557174532784289,1.2251582027263037,78.96034339276173,19.953352083437075,93.18969762344932
182,0.16230565036025782,1.2308547860138563,39.335032763079546,27.9524925595493,234.01734160957383
183,0.19005524861878453,1.1693680798214963,88.71125294194348,24.76387205537302,102.50384644726071
184,0.18838992332968235,1.1804721211608427,109.10227480902708,34.498275434678824,199.40345317577942
185,0.18675352877307275,1.1222888786340564,78.95740154464549,51.86741779474621,144.6140257519114
186,0.18514531754574812,1.1338901543912934,159.14722737817146,53.840920187289626,202.7624335509538
187,0.18356456776947705,1.2255807695757468,95.57995258029192,51.516649197544986,160.4224864725808
188,0.18201058201058204,1.2610837438423645,50.287093952330316,35.92874247331605,154.05520448953956
189,0.17170111287758347,1.2669843297145946,45.50185839208548,35.2926674587692,108.63152117991976
190,0.16143497757847533,1.28,77.43846931169816,27.56717806968589,100.84908426811727
191,0.15232722143864597,1.2428073858485615,75.66550442869453,46.80229268760113,137.44475029195394
192,0.14419225634178906,1.1833047745975334,11.414417803187748,34.99915796305254,124.28355785524144
193,0.13688212927756654,1.1659946096149427,65.054922173096,28.666796641566645,143.4378233309689
194,0.13027744270205066,1.220187461515656,64.24857649629335,28.03763577162475,195.21028047273714
195,0.12292726066769842,1.278314659776911,32.341601184716396,25.752209446639814,116.02736358373627
196,0.10853015811048215,1.2621354460496945,96.58039950124774,48.12179931707123,198.41403105310528
197,0.0971518434387559,1.2260536398467432,119.90485244106718,33.90632845897717,157.9896122051109
198,0.08793294322315356,1.2123170841188617,36.24196348712553,29.144277655602206,186.66141570196572
199,0.0803120034667052,1.2418447694038246,47.4562817443587,49.339978932314665,109.94824407326826
200,0.07390668616243519,1.2494510739856801,96.7065610979476,49.90492040360915,259.4367826514927
201,0.06844761787516927,1.2098459358951656,73.7425764384731,26.982127131693275,166.56149404985547
202,0.06373953914937522,1.2012779552715653,28.69575968124878,38.60646434691901,165.5561664440368
203,0.059637455754585435,1.2334842679670266,71.46326476628961,47.91201282141914,141.91476128396795
204,0.05603144210420236,1.2172768333371162,67.60440933273428,22.937744740251706,143.94139977290098
205,0.05283664354271595,1.191269962641732,55.89341713680315,24.81528364684371,128.10593665280638
206,0.04998651442956037,1.1879795944613538,48.20415370490716,39.55104729888442,91.4638990628522
207,0.04742813273052973,1.1896117432467646,74.43257211487649,30.01799148924897,49.18354839152956
208,0.045118883388785204,1.2322503008423586,56.10693820432479,32.21605478222713,42.49528863481535
209,0.04302406561943821,1.2427184466019416,47.99048817991186,77.37081821186803,61.85105662064371
210,0.04111513717370406,1.2186625755798213,102.6501903599857,39.615679602280665,52.56072530719081
211,0.039368406146002975,1.217573794424928,37.46918333580287,31.43455936187121,54.62346046536035
212,0.037764042654350335,1.2547512073232263,62.706008963075355,32.81562071426127,59.26130476248623
213,0.039001189060642094,1.2429833495180123,33.837161161151876,41.56955821247057,45.888101819672634
214,0.041389753512240265,1.2367149758454106,65.86926631718018,32.9903497229107,57.65693690077853
215,0.04408997221973295,1.2028146432706868,75.8357582550525,17.470223712223518,54.04500882966864
216,0.04716709807305148,1.2536939885450258,63.9895702801722,46.876247784162096,48.533624090889695
217,0.050705967226630934,1.2864321608040201,76.63936994721047,43.35559836598891,44.00818900353669
218,0.05481894150417827,1.2801283336675355,50.13185555137896,33.847539617183635,61.820106314821814
219,0.05965805747544562,1.248780487804878,67.67478765807594,36.96758880938034,46.25753218018495
220,0.06543423327570157,1.2768794467386437,37.71575776159622,46.179812490812466,58.9099942914
221,0.07244882933294065,1.316872427983539,56.99004435989674,46.117124224398665,56.310891933050186
222,0.08114794656110837,1.3594145952563994,36.700331460728734,40.33529572558108,71.69136831868828
223,0.0922211808809747,1.3473684210526315,29.804497154390138,20.956906085982336,57.27345421200339
224,0.10679400911656176,1.3463377318799006,45.154326557496276,21.289731950448086,69.35996304072812
225,0.12683681361175564,1.3434913674979447,31.003928799762967,39.65453232678111,117.29691803703628
226,0.15614090764836563,1.3058165256994145,34.344850926699856,56.38402853913397,71.13239842632693
227,0.2030540652084193,1.3187899177333298,66.73037270492028,37.95912413619221,57.136984851550885
228,0.25688073394495414,1.3208729302129676,89.34852969294798,25.160698269297676,167.80747663294144
229,0.2772277227722772,1.23505920915953,44.9990266872542,22.738808338836577,182.96726896710078
230,0.3010752688172043,1.112556582601088,52.790607082639866,45.184730670948035,214.13249160401978
231,0.32941176470588235,1.0818058626346194,72.47688680462386,35.70819159683566,111.24110826720934
232,0.2766355140186916,1.1297006907137375,118.8394410410014,21.18065830025803,121.43785590832731
233,0.23161189358372458,1.1381946369865727,67.54226797024049,15.780663276641215,193.41242990789524
234,0.19919246298788695,1.1608222490931077,62.420794833220825,27.960044792699918,89.47501128228882
235,0.17473435655253836,1.2018779342723005,38.10961995074547,24.48505172868095,134.17612220681394
236,0.1651376146788991,1.2530953066513102,78.5097408073438,33.39887850277345,218.468488519024
237,0.18947368421052632,1.2978745251052468,42.10175406293877,39.88376342639105,232.2341635320299
238,0.2222222222222222,1.2656193615127385,68.90851304182088,31.41153483019121,78.08448650297007
239,0.26865671641791045,1.2168284789644013,45.68546232672526,29.144562944025918,115.96115055435578
240,0.339622641509434,1.1935834456375254,56.37002137656879,31.246143749739304,130.0447095062624
241,0.3552123552123552,1.2098298676748582,41.585078966043746,31.26917434967444,164.59270728277775
242,0.34456928838951306,1.234955230096481,38.56988501855645,29.070595137447675,120.57010405493037
243,0.33454545454545453,1.208952551477171,71.9703529778728,27.434787905001844,192.47369364093362
244,0.26062322946175637,1.2230044802048092,55.59166500479897,34.178225162398384,349.0352261705417
245,0.20861678004535147,1.227429517545877,88.05352245071325,37.07506776585822,259.91097798219005
246,0.17391304347826086,1.2023716994959028,81.58086849297263,32.462654048360164,95.59776270165105
247,0.14910858995137763,1.1749107598164201,92.90093218815132,33.730520802461406,125.26467203497926
248,0.13049645390070921,1.220045951909734,114.36071658656748,25.090651151544723,235.54846140305554
249,0.11637931034482757,1.2069858556345043,76.95027455904193,29.928499063767063,80.32121467826875
250,0.10714285714285714,1.2418779298924831,29.57410863249256,19.224670966098202,73.8563515103484
251,0.09926470588235294,1.2978619895019845,39.103923400574025,22.311226682006748,74.75159887277188
252,0.09246575342465753,1.374095682613769,32.61593813159148,28.49821084240554,76.780068069288
253,0.08653846153846154,1.5732685655405902,27.824574669512455,22.119262011450616,87.04235172773026
254,0.08132530120481928,1.5196687370600415,26.85206990712881,14.568462173265816,52.80086868332947
255,0.07670454545454544,1.7979677226539152,48.835291434168454,17.20359989947103,84.35086061626693
256,0.07258064516129031,1.272352168903893,103.2533805253347,31.478313264314092,159.38941000923955
257,0.06887755102040816,1.5581518052310244,83.34897917454617,31.369899980137117,115.5863902953972
258,0.06553398058252427,1.5814265984845657,68.61629678028555,48.169528591964216,88.0916967788074
259,0.0625,1.8008658008658007,82.49262721553787,44.50011161231114,124.39831560739792
260,0.059734513274336286,1.6966707768187423,96.91527224119173,50.90836777466168,66.8249053515283
261,0.057203389830508475,1.7255824474100883,46.41527176189539,36.29111073398275,107.73066627042715
262,0.054878048780487805,1.1593174443847896,70.19501446222789,15.546940026823295,68.21907042753047
263,0.05564472980203317,1.2474588230106056,30.76681854518307,53.92064212788618,133.02317050747993
264,0.058394160583941604,1.2788504714863045,36.95992206284109,26.51777059764222,121.23005937966684
265,0.06142941523922032,0.8602402314507324,65.58978624186697,67.39743051463802,56.201720454654314
266,0.06479750778816198,0.8811657253031109,59.28294861790421,58.36989299627783,52.51598849239481
267,0.06855636123928807,1.0540763107329123,54.713016502601846,38.86726004793305,64.89820319887401
268,0.07277816655003498,1.4421374537260583,96.58682275501059,44.80738856261825,54.14207880907782
269,0.07755406413124534,1.7097895699908507,45.650916828324284,44.002358413816296,41.53781130431374
270,0.08300079808459697,1.6365938053844207,50.83167713840112,51.183248540921845,49.298174884316495
271,0.08927038626609442,1.7146185206755968,100.51869561445515,57.19781494984372,52.73414784321075
272,0.09656453110492107,1.68567454798331,43.12295199099682,70.98077175183518,62.95977978290736
273,0.1051567239635996,1.6683047733002865,67.00707807158597,37.36469407365145,47.959642743873616
274,0.11542730299667037,1.566099671739779,60.34547354162663,39.50239415115834,26.6819387389322
275,0.12792127921279214,1.4980838943552564,47.866044000500416,40.344388147201535,46.960390287786524
276,0.14874371859296484,1.5011177219107887,35.80283239519064,51.48713372596547,64.0496449324477
277,0.18249075215782984,1.4974098596864387,57.96368627785024,51.09099790249178,46.01341040765411
278,0.2360446570972887,1.4281729428172942,97.58346526086413,56.57273773181146,49.40303368032055
279,0.3340857787810384,1.4157575757575758,70.06569629348125,48.85977349679161,68.75223956927667
280,0.5714285714285714,1.4163371647509577,74.30601794503112,64.80766767370652,61.2098421643447
281,0.3157894736842105,1.4065934065934067,78.26432732946505,64.27541158111862,69.76139114431584
282,0.21818181818181814,1.450896590170027,100.31423727734524,65.55800378783793,52.213238195501916
283,0.16666666666666666,1.397571671489514,272.07974890555215,64.19143366798306,92.3819157871791
284,0.1348314606741573,1.4706831275720162,197.12499575540252,43.8220312247483,111.83415449415533
285,0.11320754716981131,1.4781389760363126,85.3695342578934,35.9993085913616,70.12392147380373
286,0.0975609756097561,1.5454838594102684,132.98712752149873,28.62033308108154,98.7477769081064
287,0.10559284116331095,1.5627823619460106,83.37999133746021,31.39836316406279,93.5500762191918
288,0.11506582155046319,1.5308881647368786,35.248704796248376,38.78128291828699,72.70805220021829
289,0.12640599892876273,1.3671173730257926,63.8188287022147,36.35768485596316,97.14619749498522
290,0.14022578728461083,1.2586989409984872,107.43436398179236,23.74773010420035,88.91933632035808
291,0.15743829219479655,1.3602130940698165,57.78810835347598,26.794128625872276,118.90982154745004
292,0.17946768060836502,1.3403141361256545,89.8713770118834,27.116109325219448,45.52391698684275
293,0.20866489832007076,1.356561617404435,73.79563569607316,28.95705205697687,107.11918879775234
294,0.24137931034482757,1.4099411100601105,52.92757298491729,40.127636588766784,102.93130942158771
295,0.27999999999999997,1.439337944976152,76.21307368204145,29.806079497020345,94.23371895567234
296,0.3333333333333333,1.4458713280535134,58.696414895649504,33.60455670883829,176.1064248409591
297,0.384180790960452,1.417814734129054,60.557650618160366,12.07867009423698,80.73773764866596
298,0.2918454935622318,1.42907790390297,51.34277786230842,23.559587869065496,103.042183805139
299,0.23529411764705882,1.4596637560276293,123.2965985923413,32.590541645429525,86.51805959075139
300,0.19710144927536233,1.4845803164387235,110.80183933321587,28.747861437786966,150.13097084037022
301,0.16957605985037408,1.3897100951071388,66.07238909064293,19.84151542025927,171.34566336089787
302,0.20202020202020202,1.2935562077325506,91.7357813534881,20.30937228085874,88.13667104355741
303,0.26666666666666666,1.283102716897283,29.380002192016278,16.417686854145124,157.82948970293216
304,0.392156862745098,1.3445602334305962,54.345865934534004,32.093837670824996,197.7666036108182
305,0.6101694915254238,1.3921678735037681,63.89677194487726,21.967975395781963,110.27047922098907
306,0.36363636363636365,1.4365836120924127,43.42963663698544,36.74884765807189,105.55140584927807
307,0.2589928057553957,1.4846798524974858,126.70098219765387,48.97975919038894,154.69081574189175
308,0.20111731843575417,1.3941167596922612,102.70597874975735,30.660604851866097,73.8900190857109
309,0.19638242894056848,1.3402061855670102,55.9018215656225,31.42702321234108,53.07815309254096
310,0.20485175202156333,1.2517214996174446,81.33828456703267,40.89201986583119,122.73814051283287
311,0.21408450704225354,1.279147235176549,59.811663079983845,33.7956811258674,110.17866849061372
312,0.224188790560472,1.2922733499061436,75.0832724483472,47.88137601053454,79.34601931537318
313,0.23529411764705882,1.2654181544365908,46.625270100010745,29.992203428039254,72.28263433529463
314,0.201329534662868,1.2134204008106282,44.321053166884035,61.830779080500605,54.46473392907333
315,0.17593360995850624,1.2139214458262504,35.025272282124455,35.50625597756297,37.741107321708924
316,0.15622697126013266,1.248870076763039,34.40894600985225,40.530635873278754,57.09028536275761
317,0.1404903909874089,1.254631953907576,80.81879574037973,46.89714924070588,51.40148456399894
318,0.127633955448525,1.2219918430586252,37.32344332311252,48.2672366185789,70.45372707125682
319,0.11693325979040264,1.2371306060957237,50.26953233137091,49.28091683924741,62.74966572634302
320,0.10953729933899907,1.260748859329358,58.32947702220991,36.89629974585254,38.49312476260753
321,0.10555050045495906,1.2360075053773283,101.48154619985394,26.339605818840006,53.12384045889855
322,0.10184372256365233,1.1720481927710842,87.79593060364103,68.42584846549853,65.94773069121932
323,0.09838846480067855,1.1884712102650075,75.066449315967,33.45171905121682,50.8233164756098
324,0.0951599671862182,1.2155991109315014,43.041240322913396,38.522261601209706,75.83291988868636
325,0.09213661636219221,1.2307692307692308,30.339791027156807,37.60257212125773,44.96539948724627
326,0.08929946112394149,1.2248245693976123,35.3429402444258,54.03511649455548,47.85346134607542
327,0.08663181478715459,1.2156376187146112,74.80019604385458,34.851417286525646,58.13139512527809
328,0.08411892675852067,1.2414665573386434,164.32991813625216,64.02230822224841,72.37602208061784
329,0.0817477096546864,1.2545711615423327,103.54697174458605,43.04024797460271,47.37748357438268
330,0.07950651130911583,1.2263892690938956,53.98150738689592,50.06726323228281,53.56525676357978
331,0.08059384941675504,1.2240236659251955,61.55356073389592,29.333144073364167,41.91976660617155
