time,breath,heart,delta,theta,alpha
82,0.2546201232032854,1.1777768063994405,21.34128721040458,12.979928743843555,37.457434858034155
83,0.2588726513569937,1.142109333174707,20.496955813857397,15.636408256445886,71.27791206352528
84,0.2632696390658174,0.979692379877128,25.153070371516755,16.623187825321093,91.34194097481961
85,0.2644628099173554,1.019839701535008,30.13761689799864,33.454710994207545,75.0681383610023
86,0.256,1.0390160031741833,22.15595012388838,15.361868904536632,81.79159393536763
87,0.24806201550387597,0.9484627294846274,12.370752212696107,21.303994911324658,78.18454211345156
88,0.24060150375939848,1.0968294772922023,20.65140205006621,16.225039172253677,55.342298062970684
89,0.23450586264656617,1.174873847224639,46.95492731055212,18.21865775277505,53.8188208931701
90,0.23140495867768596,1.0950931630910845,45.686515725564064,14.652943074233958,40.13821842238681
91,0.22838499184339317,1.2025613766163128,38.02498077353881,22.8456415850055,60.02655770359885
92,0.22544283413848631,1.4226921806001982,21.414862038449016,22.44450227149099,73.67431253229336
93,0.22257551669316375,1.1823137492428832,29.401137892081426,10.81508011025802,105.77145450991748
94,0.23036649214659685,1.1511534118406195,29.906072635427655,20.719845138247287,56.799997916689634
95,0.24043715846994534,1.3562450664885544,6.439987707533248,46.72878179333019,71.59522278760926
96,0.2514285714285714,1.4017247038462686,20.61662775268039,34.32233393726044,42.25582668091501
97,0.2634730538922156,1.8062088428974599,31.429278283103148,30.468431126431252,67.43703025928275
98,0.2632696390658174,1.6060037523452158,36.52777114405967,18.2744974837914,44.72052449126582
99,0.2588726513569937,1.576664399607043,25.656292631826695,29.28617617730462,65.2151224258005
100,0.2546201232032854,1.5828925839960426,9.026310442562147,27.571689241414006,57.221987094382456
101,0.2505050505050505,1.5862913096695228,22.455443057265285,41.68791645426383,113.00323203328237
102,0.24672897196261684,1.4385781495033978,35.55193457539292,55.106514434936315,58.06808922492293
103,0.24309392265193372,1.6084822305124682,22.369221897880703,11.812996843621168,45.94361728179121
104,0.23956442831215974,1.4588235294117646,27.730057831962405,11.87921270549756,74.17888539691587
105,0.23613595706618964,1.4729089952656496,14.637014739968773,26.905750180663198,88.03151317560422
106,0.24060150375939848,1.265919870824503,12.41819141945826,20.999508985097208,92.32168763062506
107,0.24806201550387597,1.7683892870614861,19.16963234562089,15.507015191938121,87.54341924587757
108,0.256,1.7366069598721152,20.126844527445183,41.02977863571755,49.59935828173995
109,0.2644628099173554,1.313511380081568,15.906928746439284,19.095937646449027,59.03312198730115
110,0.2632696390658174,1.473352877642339,15.48245746364859,14.619455237433835,73.64079084884195
111,0.2588726513569937,1.4529476382277555,15.6048752738719,18.79236275739765,61.428189715620235
112,0.2546201232032854,1.4991278345377523,21.753199635317866,18.303515374426244,62.64635696561387
113,0.2505050505050505,1.7470099901505556,26.056437788163713,16.742071425665365,54.429977575230936
114,0.25,1.3010732340298992,17.214354978965712,28.451124135015235,54.87535412101016
115,0.25,1.4336458766680535,9.567178318793943,19.375307537262564,74.75791208155502
116,0.25,1.2275749561262574,17.26828105129848,33.89060105768465,86.39987441365668
117,0.25,1.3075519883254287,17.22950086025787,19.913777757299634,117.35793077448537
118,0.25357873210633947,1.2796996010326214,20.691823701136336,16.125864634515562,53.92427162670282
119,0.2577962577962578,1.038326381818779,33.78404132875686,23.658322009212014,80.3636583808535
120,0.26215644820295986,1.0454477125820514,25.13323306014516,13.843869955579148,59.76123640972477
121,0.26666666666666666,1.0421516930322023,14.177162843335452,35.572268138622576,99.37656732429609
122,0.2716627634660422,1.0247214038683232,24.751786091171574,18.715684210360312,70.44987412075966
123,0.27684964200477324,1.0815943312666076,34.466958077459715,15.020342077089602,65.68278354726033
124,0.2822384428223844,1.2898435428268364,32.68795849475737,21.214834652777782,61.2889106950015
125,0.28361858190709044,1.2133436772692008,28.74215571416744,14.319616436207028,67.35433686311445
126,0.27817745803357313,1.383564407805609,19.63034796367824,15.464076682445192,126.42548820165705
127,0.27294117647058824,1.3763440860215055,32.78368086498094,16.668263612640054,23.447269347269906
128,0.2678983833718245,1.5440658852475824,43.046506101420945,11.211703175360247,56.5102126088382
129,0.2601626016260163,1.3550837988826816,48.09357084111876,15.256927561046842,29.012125978866074
130,0.25196850393700787,1.3359840954274353,27.642381638278017,8.574181983794384,47.15172044022151
131,0.24427480916030533,1.2547783251231528,23.22887354377267,26.138187559486784,63.61997768850327
132,0.23703703703703705,1.4771173066806944,16.58660231814561,20.750164553514193,62.09202902956299
133,0.23529411764705882,1.2618009478672985,23.637039469637287,14.204209636884137,39.88246854421742
134,0.23529411764705882,1.2502495365749324,51.11352639626375,12.007945765075721,20.753911395593647
135,0.23529411764705882,1.3569535500069745,31.760577556118847,9.161847216792296,17.658641092715158
136,0.23529411764705882,1.1677663011330028,24.94614244836066,9.665257656365121,11.783870699517198
137,0.23529411764705882,1.6562389048877668,21.857471817965084,9.767068413261937,15.517858646864365
138,0.23529411764705882,1.4371648110396738,39.92939730504973,14.675662797956798,20.576559659170208
139,0.23529411764705882,1.3155690902169777,45.430616271941844,44.22252946436748,77.82238625985637
140,0.23529411764705882,1.3622018348623852,19.930835132273664,21.03131550574794,78.45778354455771
141,0.23613595706618964,1.0640916268854481,21.541452163830968,20.2625481596095,80.76262376188647
142,0.23956442831215974,0.9514150353585172,20.655511657011857,20.087428327065695,57.793809892965186
143,0.24309392265193372,1.1837066080516445,36.3872426103988,7.262421889123389,89.63273511000853
144,0.24672897196261684,1.2934279543350817,18.213940388474903,18.040710708953846,62.818278421617464
145,0.2495274102079395,1.4346300723400294,8.639127072552371,9.471756766816739,86.67406390649234
146,0.24581005586592178,1.0474631751227497,20.946216855051375,23.271563398045704,96.34028926724686
147,0.2422018348623853,0.909657792756971,32.1431327427141,14.05267302216033,87.73608498933334
148,0.23869801084990958,0.8958167647526643,24.515319882458726,13.657047486782572,101.72884706214575
149,0.23529411764705882,0.9161706928074066,16.337550117435406,14.053457220425434,113.97150782040092
150,0.24242424242424243,1.0267716535433071,16.39822944633533,19.004641538528222,58.87265166852695
151,0.25,1.0928866652164455,18.147770596623268,19.491395694048396,96.83581251085053
152,0.25806451612903225,1.031237335667623,15.633287852058897,13.528649460313542,76.73207858133497
153,0.26666666666666666,1.02623756808432,33.95586055432187,16.54416042704353,97.12504887787296
154,0.2543352601156069,0.981716472839688,20.334415942133287,10.576715489772585,81.50131491424878
155,0.24309392265193372,0.9168866449678362,35.764905479015155,17.535981092401126,52.98893217439599
156,0.23280423280423282,0.9365558095186572,19.88085667324004,16.131760956699964,59.45612844194315
157,0.22335025380710657,0.9990682613145153,10.912391836804709,12.085544061904315,95.8497930198564
158,0.2247191011235955,0.9888623002156636,10.725658942703388,20.711538983466397,61.43538891293016
159,0.22764227642276422,0.9427027027027027,19.34926021254381,27.856701370261653,111.01948280226446
160,0.23064250411861617,0.9515990237984399,19.585747516624657,18.965945531670243,71.0980449378459
161,0.2337228714524207,1.0355123350736435,12.332384525464738,34.920789574623626,70.62405071515309
162,0.23880597014925373,1.0731893221542779,7.816063063500677,17.128116815281246,81.58098574809361
163,0.24615384615384617,0.9797372011201264,22.54236260153349,13.347430420733899,79.47612934862732
164,0.25396825396825395,0.9198064608683176,15.76116758073864,14.646040127422182,73.03674894552057
165,0.26229508196721313,0.9785903150260633,18.095877520256188,14.507467466982527,39.343718148587485
166,0.26229508196721313,1.0743485955597611,11.250110076954062,10.347139891657672,44.99311486438236
167,0.25396825396825395,1.0230070225378107,13.813617947100536,10.558076080250785,44.51697642796079
168,0.24615384615384617,0.9516728624535316,30.096928936918868,14.824506768892459,57.47149464975374
169,0.23880597014925373,1.038736938880147,18.892100581735583,22.122726907355393,55.27489019481451
170,0.23529411764705882,1.271367259350092,20.514399729228064,27.006089049871164,76.42953242828688
171,0.23529411764705882,1.1689252874766982,24.941170612744415,18.271854926130914,45.61053167644667
172,0.23529411764705882,1.2046796366092243,27.716801849539067,21.631680558682817,84.27011844062815
173,0.23529411764705882,1.1815140626935945,30.103777038932378,12.376947249237656,48.68557175457767
174,0.23703703703703705,1.144901610017889,26.742685041007036,13.047564165884747,81.81658990566945
175,0.24427480916030533,1.1887381815894844,22.933356499568823,11.911883430474138,66.1974138647212
176,0.25196850393700787,1.086013194082436,9.437593441637198,23.087951928618214,74.7061153722134
177,0.2601626016260163,1.348079714926752,12.986512803601123,30.18378620571063,84.04697086854068
178,0.26552462526766596,1.259829670049467,23.0582981480514,33.713430769264384,32.890763418437736
179,0.26105263157894737,1.4911852640984227,16.85512357675234,32.16341711029632,25.297026550274794
180,0.2567287784679089,1.751009915534337,19.096602080064113,20.529770792352245,38.48862399234953
181,0.2525458248472505,1.4286451612903226,18.00157086010178,7.272732153551624,50.54527612860377
182,0.25,1.2741935483870968,28.720459303270996,14.14935430656514,52.87105864873164
183,0.25,1.4067211625794733,11.113779380459768,18.726490779720436,82.58654742770173
184,0.25,1.3561175666438823,13.811878533869503,15.434219017079595,79.03141302961347
185,0.25,1.0048871789539358,17.30261192791499,24.799317171344725,61.38460568499969
186,0.2515212981744422,0.9251897361763644,37.36690618054701,47.370205542208026,65.87042670525788
187,0.25567010309278354,1.3866189388408732,8.996994308331907,13.98494765917845,31.77459904138855
188,0.259958071278826,1.3497860593512767,7.708928772323066,39.57745859588837,50.65326396964065
189,0.26439232409381663,1.043449029330196,9.8655589129599,57.62072382663264,54.677933627894944
190,0.26666666666666666,0.9975823284729627,22.608238254840217,61.676698222887865,85.4058361534465
191,0.26666666666666666,1.1299461393377277,24.17743150512839,54.798735836321256,50.14354537101467
192,0.26666666666666666,1.1993537964458805,11.206537605481923,43.1661063964915,41.379623674811484
193,0.26666666666666666,1.0245287890524142,34.43941354475588,34.52634708520583,79.03885104260272
194,0.2601626016260163,1.0147293367107608,24.560212388172744,15.082194078337203,88.26542937306571
195,0.25196850393700787,1.3927878174809307,25.839103236506613,13.589872932785397,92.87338947592606
196,0.24427480916030533,1.2190756631162436,15.442177134020394,17.605258592138533,60.153436443732204
197,0.23703703703703705,1.6420876318093571,16.28786213407417,33.29236695741109,38.469099926547344
198,0.2639593908629442,1.5695433843279223,17.877691877997364,67.34897672247726,59.60982749804211
199,0.3151515151515152,1.6515553075742782,12.433073507753063,72.36125906165964,73.56500012659697
200,0.3909774436090226,1.1851851851851851,12.97658011599174,66.8110735425501,37.85608706013704
201,0.417910447761194,1.282609776716893,25.86397728674119,47.238331101936446,28.057866175509105
202,0.37333333333333335,1.1738675570395103,22.9936000847255,11.805862446298736,36.33703136338711
203,0.3373493975903614,1.2017233618416823,15.914663197552658,31.598030354164507,98.08799730595926
204,0.3333333333333333,1.128228539321897,18.569673980598843,53.233985670466765,80.3706977846825
205,0.3333333333333333,0.9549101487355135,27.32491286298901,120.023138483531,59.98616906634469
206,0.3333333333333333,1.3940670317106925,13.751500452492007,72.2503933809105,30.727789581212427
207,0.31901840490797545,1.3998900226064641,19.22152151165585,18.431718973178768,25.525319492011654
208,0.304093567251462,1.5093471383376473,24.606829685889338,29.080743625370687,80.41225666435105
209,0.29050279329608936,1.465932788622611,26.06396194145782,23.173868502848958,88.6440339153927
210,0.27906976744186046,1.1228070175438596,19.809469511301252,25.238482803124512,65.56954851654312
211,0.26905829596412556,1.1088238526061316,24.16512582515299,16.896531195493417,76.56169414338171
212,0.2597402597402597,1.0729157278053179,10.367479472641227,27.836186146069537,44.92179305851252
213,0.2510460251046025,1.304221251819505,19.593465187649016,7.757255719610518,75.21933766233633
214,0.25357873210633947,1.3016352892675553,18.45352793007239,11.759295849506582,88.47999465571907
215,0.2577962577962578,1.416195856873823,14.42491441497507,31.30896640218089,46.84303817147966
216,0.26215644820295986,1.1315400083469287,16.05001956396644,10.286130492966501,41.33185491150315
217,0.26666666666666666,1.013267024440912,18.8303783450593,8.831635758512608,75.87920899387436
218,0.25092250922509224,1.070829760050405,19.865434748531996,18.449048903269677,58.65821533297713
219,0.23693379790940766,1.0253341697630651,18.405548736060016,21.24250781182228,85.43305158856904
220,0.22442244224422442,1.0398818316100442,27.10531128503386,15.32129309986105,98.3434169683236
221,0.21316614420062696,1.075346084751136,26.700494723158727,22.08025212171725,74.74940702759078
222,0.21638330757341576,1.0123649326055475,15.575356808781075,17.120809148327005,59.944023222681665
223,0.2247191011235955,0.9846153846153847,30.690623345944566,15.401592881533592,78.09389850066796
224,0.2337228714524207,1.0696621564122202,30.918742647080855,25.11628267807194,63.47282578113006
225,0.24347826086956523,1.0328259673574178,21.63644113217048,29.040921068404565,73.70816261333125
226,0.24858757062146894,0.9876157737514447,14.083229749910341,13.077118749499721,79.88299715260678
227,0.2448979591836735,0.9808429118773946,24.336374220844277,8.843307812720305,60.225937175602816
228,0.24131627056672764,1.1314473417114175,22.432120842596042,33.10010981591262,71.58213705560313
229,0.23783783783783785,1.027245310024025,16.251323925404876,25.552125356825446,50.20944773100461
230,0.23529411764705882,1.0423691396987884,25.248873732725084,36.010533715407675,79.44289433813282
231,0.23529411764705882,1.066208673250322,36.4362312422069,28.167110235760145,87.25225307256542
232,0.23529411764705882,1.0573129569007922,20.219437000685858,24.37340627896191,85.2620000960896
233,0.23529411764705882,1.0539984164687253,20.734031200238377,10.006346828645249,89.03267677836389
234,0.23529411764705882,1.1380217980463647,13.848594711915858,20.25255610469067,82.66683332951175
235,0.22929936305732487,1.0900889522400448,15.038557030233989,15.588563941557462,55.951590542367114
236,0.2236024844720497,1.0694015662881762,21.169735408482325,9.829584718568551,103.29469542194352
237,0.2181818181818182,1.1105243304413428,20.719580574265283,30.80202613819319,38.073332361159196
238,0.21301775147928992,1.1327433628318584,31.06802722004301,44.058345644880475,109.03700310657658
239,0.21301775147928992,1.0705709688257035,26.923875629306313,23.281072158827424,75.37527327186794
240,0.2181818181818182,1.0996403792364415,13.047474828247932,19.972840754522977,110.91542287011423
241,0.2236024844720497,1.0097639831878436,28.09804195180132,36.099157995230485,63.855579034156406
242,0.22929936305732487,0.9614989146578317,15.092752961399846,15.814831392991845,112.79699192025241
243,0.23529411764705882,1.0069116042197161,45.11482967459415,16.13394434956194,91.4071445615171
244,0.23869801084990958,1.0515055071401196,49.21947248834012,14.539924218972061,38.305112598664145
245,0.2422018348623853,1.0174880763116056,15.836323826737589,16.470047134259627,33.68704903151244
246,0.24581005586592178,1.0190342300219564,21.054441965773748,16.88709090960637,60.94512259369819
247,0.2495274102079395,1.0675199564277569,27.158773601838362,14.079331848301262,51.28331134019987
248,0.25,1.0058379066253083,16.472525628743377,30.832691932359992,55.37637484872834
249,0.25,0.9963361053255697,23.810479694680446,61.143660771512046,37.5513079422907
250,0.25,1.0987124463519313,16.976385089873624,38.95320686321186,22.868916569589175
251,0.25,1.088040215038749,10.83923603437405,29.216067079442325,23.798676614132894
252,0.24672897196261684,1.0269672707781985,7.551956908600856,17.961377382712648,28.618056010457472
253,0.24309392265193372,1.1365345618490736,13.642758050044506,26.621911995435035,27.058429642337167
254,0.23956442831215974,1.1057139157618245,13.405688271863411,22.700027152660198,24.112474223181124
255,0.23613595706618964,1.0413201320132013,9.840136581641293,16.369673127859148,12.05779129251093
256,0.24060150375939848,1.0459193904150792,11.570595504904439,12.55764930504259,12.26648590128547
257,0.24806201550387597,1.0495512939235263,23.75948744032474,20.663895014728872,20.46918671647519
258,0.256,1.0171087344591714,20.273885687574108,15.23674058857983,17.71442353342057
259,0.2644628099173554,1.0516255595982629,16.572890750800426,9.26914994001295,14.292428920571009
260,0.2601626016260163,1.0431581237344578,16.074784750070922,11.558149982999637,14.13618773880429
261,0.25196850393700787,1.0212278047615255,19.040021108152096,19.989928160412965,12.98792573849881
262,0.24427480916030533,1.0497574636195428,19.826616808392227,19.91595513963146,14.24490631127132
263,0.23703703703703705,0.992644235937284,42.32187367977863,10.102391734221797,16.189363571582213
264,0.24361493123772104,0.9445587468795434,20.984897648948852,12.73219667522072,21.088649128130438
265,0.25567010309278354,1.0151859821703044,11.471134293338011,15.20719294717858,17.532155967747865
266,0.26898047722342733,1.0706817231283983,14.84264465443976,14.336416343259929,54.60113106769361
267,0.2837528604118993,1.0018980094429892,19.313937010953452,10.597004617033424,39.1176266809885
268,0.2725274725274725,1.0838852097130243,16.262812162874486,18.881072715477547,44.168534431849665
269,0.2588726513569937,1.0643365513353533,11.933560745830516,15.31740625188333,32.09790950393545
270,0.24652087475149104,0.9418716972555258,26.641351551873086,23.325588308839126,48.01300351134681
271,0.23529411764705882,0.9979661016949154,23.124333825275535,17.329676691793598,33.67445814526053
272,0.24242424242424243,1.0674094329047707,12.313116361486669,35.05778835224424,42.14414677103841
273,0.25,0.9825185003600484,7.8708214786762225,14.67218106368114,24.3353275669533
274,0.25806451612903225,0.9701432433987229,20.54617076161346,20.61463916408389,22.618063625750878
275,0.26666666666666666,1.031475161167994,25.622953550354694,14.36572305275364,18.13473833048564
276,0.25806451612903225,1.033000065346664,25.134054138555058,25.92504820547153,33.65855471955793
277,0.25,0.9747739171822941,22.958082429303307,18.194130362377386,20.84776928608349
278,0.24242424242424243,1.038411271556533,12.86858929024617,6.210500156698734,11.172876656207364
279,0.23529411764705882,1.0574205696256211,27.78854030307351,14.76296646781169,17.43182129495847
280,0.23869801084990958,0.9964586030983322,22.331525167840883,15.76783695235997,14.966630015974811
281,0.2422018348623853,0.9999695428379983,13.962452031722725,7.053680271486364,23.23851231002606
282,0.24581005586592178,1.0118341357353626,18.286242735079938,13.960501652851107,16.134297571128204
283,0.2495274102079395,0.9528671867200982,26.3879755714382,21.391200927250612,12.850309877703275
284,0.2575107296137339,1.017254818052605,22.359439621220265,18.313083105823154,9.589997480905623
285,0.26666666666666666,1.1126673300414922,15.857598365792919,13.919767924638053,15.125482995707031
286,0.2764976958525346,1.0837190893290427,12.17308427071955,26.34117125814374,12.31466518166844
287,0.2857142857142857,0.9958026475607694,15.92059241123311,12.917350970546586,11.883864935098334
